# OpenSignals Text File Format. Version 1
# {"00:07:80:4B:3C:23": {"position": 0, "device": "biosignalsplux", "device name": "00:07:80:4B:3C:23", "device connection": "BTH00:07:80:4B:3C:23", "sampling rate": 1000, "resolution": [16], "firmware version": 776, "comments": "", "keywords": "", "mode": 0, "sync interval": 2, "date": "2024-9-9", "time": "15:4:58.967", "channels": [5], "sensor": ["EMG"], "label": ["CH5"], "column": ["nSeq", "DI", "CH5"], "special": [{"SpO2": [80, 40, 5, 4, 3, 3]}, {"SpO2": [80, 40, 5, 4, 3, 3]}, {"SpO2": [80, 40, 5, 4, 3, 3]}, {"SpO2": [80, 40, 5, 4, 3, 3]}, {"SpO2": [80, 40, 5, 4, 3, 3]}, {"SpO2": [80, 40, 5, 4, 3, 3]}, {"SpO2": [80, 40, 5, 4, 3, 3]}, {"SpO2": [80, 40, 5, 4, 3, 3]}], "digital IO": [0, 1], "sleeve color": ["gray"]}}
# EndOfHeader
0	0	32834	
1	0	32800	
2	0	32784	
3	0	32904	
4	0	32868	
5	0	32768	
6	0	32780	
7	0	32756	
8	0	32856	
9	0	32888	
10	0	32784	
11	0	32864	
12	0	32792	
13	0	32820	
14	0	32728	
15	0	32768	
16	0	32880	
17	0	32812	
18	0	32900	
19	0	32848	
20	0	32856	
21	0	32794	
22	0	32732	
23	0	32770	
24	0	32784	
25	0	32792	
26	0	32876	
27	0	32804	
28	0	32824	
29	0	32892	
30	0	32836	
31	0	32796	
32	0	32872	
33	0	32784	
34	0	32818	
35	0	32766	
36	0	32784	
37	0	32804	
38	0	32756	
39	0	32812	
40	0	32844	
41	0	32844	
42	0	32752	
43	0	32784	
44	0	32816	
45	0	32808	
46	0	32828	
47	0	32810	
48	0	32804	
49	0	32828	
50	0	32756	
51	0	32868	
52	0	32828	
53	0	32816	
54	0	32806	
55	0	32810	
56	0	32836	
57	0	32824	
58	0	32756	
59	0	32772	
60	0	32760	
61	0	32852	
62	0	32832	
63	0	32792	
64	0	32788	
65	0	32800	
66	0	32792	
67	0	32824	
68	0	32788	
69	0	32778	
70	0	32868	
71	0	32784	
72	0	32804	
73	0	32804	
74	0	32870	
75	0	32848	
76	0	32816	
77	0	32764	
78	0	32728	
79	0	32836	
80	0	32856	
81	0	32768	
82	0	32828	
83	0	32852	
84	0	32932	
85	0	32856	
86	0	32696	
87	0	32628	
88	0	32772	
89	0	32828	
90	0	32748	
91	0	32764	
92	0	32684	
93	0	32764	
94	0	32808	
95	0	32878	
96	0	32852	
97	0	32808	
98	0	32832	
99	0	32820	
100	0	32776	
101	0	32828	
102	0	32860	
103	0	32860	
104	0	32828	
105	0	32824	
106	0	32848	
107	0	32772	
108	0	32792	
109	0	32830	
110	0	32836	
111	0	32768	
112	0	32804	
113	0	32836	
114	0	32840	
115	0	32776	
116	0	32832	
117	0	32790	
118	0	32752	
119	0	32808	
120	0	32832	
121	0	32860	
122	0	32800	
123	0	32728	
124	0	32836	
125	0	32760	
126	0	32672	
127	0	32792	
128	0	32832	
129	0	32808	
130	0	32868	
131	0	32852	
132	0	32836	
133	0	32792	
134	0	32782	
135	0	32756	
136	0	32792	
137	0	32844	
138	0	32824	
139	0	32848	
140	0	32824	
141	0	32804	
142	0	32800	
143	0	32800	
144	0	32853	
145	0	32832	
146	0	32728	
147	0	32772	
148	0	32948	
149	0	32824	
150	0	32816	
151	0	32808	
152	0	32836	
153	0	32792	
154	0	32816	
155	0	32808	
156	0	32738	
157	0	32804	
158	0	32724	
159	0	32820	
160	0	32752	
161	0	32752	
162	0	32744	
163	0	32804	
164	0	32900	
165	0	32856	
166	0	32868	
167	0	32780	
168	0	32852	
169	0	32836	
170	0	32840	
171	0	32828	
172	0	32732	
173	0	32740	
174	0	32864	
175	0	32888	
176	0	32808	
177	0	32804	
178	0	32848	
179	0	32808	
180	0	32702	
181	0	32716	
182	0	32736	
183	0	32834	
184	0	32816	
185	0	32806	
186	0	32832	
187	0	32850	
188	0	32733	
189	0	32746	
190	0	32764	
191	0	32708	
192	0	32832	
193	0	32876	
194	0	32904	
195	0	32828	
196	0	32834	
197	0	32792	
198	0	32728	
199	0	32716	
200	0	32796	
201	0	32786	
202	0	32820	
203	0	32840	
204	0	32842	
205	0	32860	
206	0	32844	
207	0	32796	
208	0	32800	
209	0	32818	
210	0	32812	
211	0	32804	
212	0	32880	
213	0	32844	
214	0	32792	
215	0	32820	
216	0	32820	
217	0	32752	
218	0	32762	
219	0	32724	
220	0	32864	
221	0	32840	
222	0	32792	
223	0	32796	
224	0	32836	
225	0	32752	
226	0	32800	
227	0	32852	
228	0	32824	
229	0	32789	
230	0	32744	
231	0	32796	
232	0	32680	
233	0	32772	
234	0	32820	
235	0	32772	
236	0	32852	
237	0	32804	
238	0	32908	
239	0	32828	
240	0	32796	
241	0	32900	
242	0	32744	
243	0	32778	
244	0	32804	
245	0	32820	
246	0	32860	
247	0	32752	
248	0	32740	
249	0	32756	
250	0	32828	
251	0	32752	
252	0	32880	
253	0	32844	
254	0	32800	
255	0	32864	
256	0	32796	
257	0	32766	
258	0	32808	
259	0	32789	
260	0	32828	
261	0	32844	
262	0	32840	
263	0	32732	
264	0	32708	
265	0	32848	
266	0	32808	
267	0	32796	
268	0	32874	
269	0	32800	
270	0	32840	
271	0	32816	
272	0	32816	
273	0	32864	
274	0	32792	
275	0	32856	
276	0	32768	
277	0	32660	
278	0	32752	
279	0	32860	
280	0	32908	
281	0	32816	
282	0	32740	
283	0	32824	
284	0	32796	
285	0	32764	
286	0	32766	
287	0	32788	
288	0	32892	
289	0	32848	
290	0	32812	
291	0	32820	
292	0	32856	
293	0	32796	
294	0	32800	
295	0	32760	
296	0	32780	
297	0	32746	
298	0	32652	
299	0	32764	
300	0	32808	
301	0	32856	
302	0	32940	
303	0	32816	
304	0	32830	
305	0	32788	
306	0	32860	
307	0	32844	
308	0	32796	
309	0	32808	
310	0	32792	
311	0	32824	
312	0	32820	
313	0	32768	
314	0	32804	
315	0	32849	
316	0	32750	
317	0	32770	
318	0	32780	
319	0	32726	
320	0	32816	
321	0	32828	
322	0	32780	
323	0	32800	
324	0	32792	
325	0	32812	
326	0	32812	
327	0	32792	
328	0	32800	
329	0	32748	
330	0	32801	
331	0	32876	
332	0	32792	
333	0	32736	
334	0	32816	
335	0	32704	
336	0	32824	
337	0	32844	
338	0	32773	
339	0	32800	
340	0	32784	
341	0	32768	
342	0	32884	
343	0	32892	
344	0	32836	
345	0	32856	
346	0	32740	
347	0	32736	
348	0	32748	
349	0	32840	
350	0	32758	
351	0	32784	
352	0	32808	
353	0	32868	
354	0	32804	
355	0	32808	
356	0	32812	
357	0	32736	
358	0	32848	
359	0	32808	
360	0	32792	
361	0	32804	
362	0	32800	
363	0	32804	
364	0	32892	
365	0	32824	
366	0	32768	
367	0	32776	
368	0	32764	
369	0	32716	
370	0	32816	
371	0	32802	
372	0	32858	
373	0	32776	
374	0	32836	
375	0	32834	
376	0	32832	
377	0	32796	
378	0	32800	
379	0	32854	
380	0	32796	
381	0	32844	
382	0	32820	
383	0	32833	
384	0	32834	
385	0	32788	
386	0	32772	
387	0	32756	
388	0	32808	
389	0	32774	
390	0	32836	
391	0	32752	
392	0	32752	
393	0	32750	
394	0	32764	
395	0	32788	
396	0	32734	
397	0	32804	
398	0	32828	
399	0	32840	
400	0	32812	
401	0	32784	
402	0	32848	
403	0	32832	
404	0	32836	
405	0	32778	
406	0	32788	
407	0	32802	
408	0	32844	
409	0	32800	
410	0	32812	
411	0	32764	
412	0	32736	
413	0	32792	
414	0	32804	
415	0	32804	
416	0	32892	
417	0	32780	
418	0	32816	
419	0	32794	
420	0	32752	
421	0	32796	
422	0	32808	
423	0	32836	
424	0	32752	
425	0	32704	
426	0	32788	
427	0	32792	
428	0	32816	
429	0	32890	
430	0	32848	
431	0	32828	
432	0	32840	
433	0	32828	
434	0	32856	
435	0	32836	
436	0	32768	
437	0	32784	
438	0	32780	
439	0	32714	
440	0	32744	
441	0	32856	
442	0	32804	
443	0	32832	
444	0	32824	
445	0	32832	
446	0	32840	
447	0	32767	
448	0	32728	
449	0	32808	
450	0	32784	
451	0	32796	
452	0	32800	
453	0	32856	
454	0	32844	
455	0	32852	
456	0	32788	
457	0	32808	
458	0	32796	
459	0	32816	
460	0	32888	
461	0	32812	
462	0	32720	
463	0	32696	
464	0	32768	
465	0	32872	
466	0	32810	
467	0	32776	
468	0	32844	
469	0	32856	
470	0	32864	
471	0	32810	
472	0	32764	
473	0	32792	
474	0	32768	
475	0	32784	
476	0	32872	
477	0	32736	
478	0	32888	
479	0	32832	
480	0	32800	
481	0	32728	
482	0	32772	
483	0	32897	
484	0	32821	
485	0	32796	
486	0	32732	
487	0	32844	
488	0	32792	
489	0	32844	
490	0	32836	
491	0	32775	
492	0	32760	
493	0	32732	
494	0	32828	
495	0	32798	
496	0	32796	
497	0	32852	
498	0	32844	
499	0	32788	
500	0	32860	
501	0	32852	
502	0	32798	
503	0	32796	
504	0	32820	
505	0	32860	
506	0	32768	
507	0	32716	
508	0	32772	
509	0	32828	
510	0	32812	
511	0	32796	
512	0	32852	
513	0	32752	
514	0	32832	
515	0	32724	
516	0	32804	
517	0	32836	
518	0	32800	
519	0	32832	
520	0	32784	
521	0	32808	
522	0	32842	
523	0	32864	
524	0	32820	
525	0	32792	
526	0	32844	
527	0	32836	
528	0	32780	
529	0	32784	
530	0	32772	
531	0	32732	
532	0	32833	
533	0	32776	
534	0	32808	
535	0	32804	
536	0	32804	
537	0	32780	
538	0	32804	
539	0	32768	
540	0	32756	
541	0	32760	
542	0	32702	
543	0	32688	
544	0	32664	
545	0	32688	
546	0	32700	
547	0	32780	
548	0	32816	
549	0	32904	
550	0	32810	
551	0	32908	
552	0	32844	
553	0	32744	
554	0	32856	
555	0	32896	
556	0	32900	
557	0	32888	
558	0	32848	
559	0	32838	
560	0	32880	
561	0	32788	
562	0	32794	
563	0	32816	
564	0	32896	
565	0	32828	
566	0	32804	
567	0	32788	
568	0	32802	
569	0	32808	
570	0	32808	
571	0	32796	
572	0	32840	
573	0	32808	
574	0	32864	
575	0	32772	
576	0	32852	
577	0	32804	
578	0	32836	
579	0	32784	
580	0	32764	
581	0	32864	
582	0	32808	
583	0	32864	
584	0	32760	
585	0	32828	
586	0	32782	
587	0	32700	
588	0	32760	
589	0	32852	
590	0	32800	
591	0	32824	
592	0	32796	
593	0	32712	
594	0	32748	
595	0	32812	
596	0	32752	
597	0	32818	
598	0	32824	
599	0	32844	
600	0	32784	
601	0	32792	
602	0	32812	
603	0	32810	
604	0	32780	
605	0	32776	
606	0	32768	
607	0	32804	
608	0	32784	
609	0	32804	
610	0	32768	
611	0	32796	
612	0	32744	
613	0	32808	
614	0	32820	
615	0	32848	
616	0	32800	
617	0	32832	
618	0	32816	
619	0	32798	
620	0	32788	
621	0	32785	
622	0	32834	
623	0	32748	
624	0	32776	
625	0	32784	
626	0	32826	
627	0	32772	
628	0	32784	
629	0	32700	
630	0	32784	
631	0	32776	
632	0	32812	
633	0	32796	
634	0	32736	
635	0	32808	
636	0	32860	
637	0	32832	
638	0	32892	
639	0	32796	
640	0	32814	
641	0	32824	
642	0	32810	
643	0	32848	
644	0	32836	
645	0	32772	
646	0	32784	
647	0	32840	
648	0	32708	
649	0	32756	
650	0	32724	
651	0	32772	
652	0	32772	
653	0	32804	
654	0	32776	
655	0	32808	
656	0	32836	
657	0	32796	
658	0	32768	
659	0	32804	
660	0	32822	
661	0	32844	
662	0	32844	
663	0	32860	
664	0	32800	
665	0	32772	
666	0	32748	
667	0	32817	
668	0	32868	
669	0	32876	
670	0	32906	
671	0	32744	
672	0	32794	
673	0	32846	
674	0	32744	
675	0	32718	
676	0	32736	
677	0	32748	
678	0	32852	
679	0	32780	
680	0	32848	
681	0	32892	
682	0	32860	
683	0	32844	
684	0	32712	
685	0	32784	
686	0	32848	
687	0	32792	
688	0	32764	
689	0	32736	
690	0	32750	
691	0	32772	
692	0	32836	
693	0	32788	
694	0	32820	
695	0	32812	
696	0	32804	
697	0	32822	
698	0	32796	
699	0	32784	
700	0	32840	
701	0	32796	
702	0	32816	
703	0	32764	
704	0	32798	
705	0	32752	
706	0	32868	
707	0	32940	
708	0	32804	
709	0	32802	
710	0	32820	
711	0	32748	
712	0	32764	
713	0	32752	
714	0	32788	
715	0	32772	
716	0	32764	
717	0	32756	
718	0	32866	
719	0	32754	
720	0	32760	
721	0	32840	
722	0	32798	
723	0	32828	
724	0	32896	
725	0	32828	
726	0	32765	
727	0	32820	
728	0	32832	
729	0	32740	
730	0	32800	
731	0	32800	
732	0	32804	
733	0	32786	
734	0	32860	
735	0	32820	
736	0	32784	
737	0	32756	
738	0	32764	
739	0	32836	
740	0	32872	
741	0	32789	
742	0	32756	
743	0	32804	
744	0	32840	
745	0	32784	
746	0	32788	
747	0	32860	
748	0	32792	
749	0	32810	
750	0	32832	
751	0	32770	
752	0	32704	
753	0	32828	
754	0	32772	
755	0	32808	
756	0	32808	
757	0	32852	
758	0	32752	
759	0	32748	
760	0	32800	
761	0	32848	
762	0	32840	
763	0	32796	
764	0	32852	
765	0	32788	
766	0	32852	
767	0	32828	
768	0	32789	
769	0	32840	
770	0	32848	
771	0	32716	
772	0	32716	
773	0	32780	
774	0	32778	
775	0	32764	
776	0	32788	
777	0	32880	
778	0	32814	
779	0	32788	
780	0	32744	
781	0	32884	
782	0	32884	
783	0	32780	
784	0	32768	
785	0	32880	
786	0	32800	
787	0	32798	
788	0	32736	
789	0	32784	
790	0	32852	
791	0	32772	
792	0	32804	
793	0	32740	
794	0	32804	
795	0	32744	
796	0	32720	
797	0	32804	
798	0	32756	
799	0	32836	
800	0	32814	
801	0	32736	
802	0	32774	
803	0	32800	
804	0	32776	
805	0	32828	
806	0	32800	
807	0	32828	
808	0	32784	
809	0	32852	
810	0	32864	
811	0	32820	
812	0	32816	
813	0	32848	
814	0	32840	
815	0	32736	
816	0	32748	
817	0	32768	
818	0	32832	
819	0	32788	
820	0	32788	
821	0	32788	
822	0	32772	
823	0	32760	
824	0	32832	
825	0	32846	
826	0	32718	
827	0	32864	
828	0	32816	
829	0	32752	
830	0	32800	
831	0	32820	
832	0	32840	
833	0	32836	
834	0	32824	
835	0	32775	
836	0	32792	
837	0	32814	
838	0	32800	
839	0	32844	
840	0	32812	
841	0	32880	
842	0	32848	
843	0	32824	
844	0	32860	
845	0	32842	
846	0	32704	
847	0	32612	
848	0	32721	
849	0	32776	
850	0	32736	
851	0	32808	
852	0	32752	
853	0	32768	
854	0	32778	
855	0	32872	
856	0	32872	
857	0	32852	
858	0	32872	
859	0	32796	
860	0	32828	
861	0	32812	
862	0	32868	
863	0	32844	
864	0	32824	
865	0	32820	
866	0	32806	
867	0	32752	
868	0	32780	
869	0	32784	
870	0	32804	
871	0	32784	
872	0	32800	
873	0	32798	
874	0	32808	
875	0	32744	
876	0	32764	
877	0	32808	
878	0	32820	
879	0	32824	
880	0	32732	
881	0	32836	
882	0	32916	
883	0	32796	
884	0	32776	
885	0	32740	
886	0	32753	
887	0	32714	
888	0	32826	
889	0	32832	
890	0	32800	
891	0	32808	
892	0	32756	
893	0	32812	
894	0	32880	
895	0	32796	
896	0	32836	
897	0	32848	
898	0	32856	
899	0	32830	
900	0	32760	
901	0	32836	
902	0	32708	
903	0	32780	
904	0	32792	
905	0	32772	
906	0	32834	
907	0	32812	
908	0	32884	
909	0	32728	
910	0	32804	
911	0	32828	
912	0	32780	
913	0	32792	
914	0	32800	
915	0	32832	
916	0	32800	
917	0	32836	
918	0	32725	
919	0	32812	
920	0	32820	
921	0	32784	
922	0	32852	
923	0	32900	
924	0	32716	
925	0	32792	
926	0	32824	
927	0	32836	
928	0	32756	
929	0	32796	
930	0	32745	
931	0	32748	
932	0	32784	
933	0	32780	
934	0	32800	
935	0	32760	
936	0	32812	
937	0	32780	
938	0	32816	
939	0	32694	
940	0	32796	
941	0	32782	
942	0	32790	
943	0	32756	
944	0	32744	
945	0	32760	
946	0	32672	
947	0	32764	
948	0	32792	
949	0	32824	
950	0	32808	
951	0	32816	
952	0	32828	
953	0	32876	
954	0	32860	
955	0	32848	
956	0	32812	
957	0	32848	
958	0	32792	
959	0	32748	
960	0	32778	
961	0	32866	
962	0	32844	
963	0	32740	
964	0	32836	
965	0	32856	
966	0	32728	
967	0	32820	
968	0	32712	
969	0	32808	
970	0	32768	
971	0	32796	
972	0	32742	
973	0	32872	
974	0	32764	
975	0	32828	
976	0	32858	
977	0	32856	
978	0	32824	
979	0	32768	
980	0	32788	
981	0	32824	
982	0	32796	
983	0	32800	
984	0	32828	
985	0	32800	
986	0	32800	
987	0	32796	
988	0	32812	
989	0	32852	
990	0	32834	
991	0	32844	
992	0	32896	
993	0	32868	
994	0	32832	
995	0	32760	
996	0	32796	
997	0	32732	
998	0	32740	
999	0	32800	
1000	0	32848	
1001	0	32802	
1002	0	32772	
1003	0	32900	
1004	0	32804	
1005	0	32796	
1006	0	32906	
1007	0	32812	
1008	0	32836	
1009	0	32712	
1010	0	32752	
1011	0	32752	
1012	0	32896	
1013	0	32744	
1014	0	32752	
1015	0	32788	
1016	0	32824	
1017	0	32796	
1018	0	32798	
1019	0	32728	
1020	0	32840	
1021	0	32769	
1022	0	32876	
1023	0	32804	
1024	0	32876	
1025	0	32810	
1026	0	32814	
1027	0	32720	
1028	0	32710	
1029	0	32768	
1030	0	32796	
1031	0	32848	
1032	0	32768	
1033	0	32836	
1034	0	32800	
1035	0	32868	
1036	0	32788	
1037	0	32836	
1038	0	32826	
1039	0	32788	
1040	0	32812	
1041	0	32888	
1042	0	32808	
1043	0	32814	
1044	0	32820	
1045	0	32900	
1046	0	32798	
1047	0	32772	
1048	0	32720	
1049	0	32736	
1050	0	32736	
1051	0	32792	
1052	0	32788	
1053	0	32872	
1054	0	32816	
1055	0	32824	
1056	0	32780	
1057	0	32856	
1058	0	32732	
1059	0	32824	
1060	0	32760	
1061	0	32808	
1062	0	32802	
1063	0	32892	
1064	0	32808	
1065	0	32800	
1066	0	32852	
1067	0	32800	
1068	0	32808	
1069	0	32832	
1070	0	32880	
1071	0	32734	
1072	0	32776	
1073	0	32780	
1074	0	32780	
1075	0	32852	
1076	0	32769	
1077	0	32768	
1078	0	32880	
1079	0	32820	
1080	0	32740	
1081	0	32764	
1082	0	32884	
1083	0	32816	
1084	0	32853	
1085	0	32864	
1086	0	32856	
1087	0	32804	
1088	0	32840	
1089	0	32844	
1090	0	32816	
1091	0	32796	
1092	0	32802	
1093	0	32740	
1094	0	32828	
1095	0	32772	
1096	0	32816	
1097	0	32804	
1098	0	32736	
1099	0	32756	
1100	0	32748	
1101	0	32860	
1102	0	32800	
1103	0	32792	
1104	0	32880	
1105	0	32796	
1106	0	32836	
1107	0	32828	
1108	0	32756	
1109	0	32680	
1110	0	32780	
1111	0	32782	
1112	0	32768	
1113	0	32850	
1114	0	32880	
1115	0	32828	
1116	0	32888	
1117	0	32844	
1118	0	32814	
1119	0	32804	
1120	0	32844	
1121	0	32864	
1122	0	32808	
1123	0	32792	
1124	0	32844	
1125	0	32852	
1126	0	32788	
1127	0	32764	
1128	0	32748	
1129	0	32784	
1130	0	32834	
1131	0	32840	
1132	0	32720	
1133	0	32760	
1134	0	32792	
1135	0	32808	
1136	0	32784	
1137	0	32828	
1138	0	32784	
1139	0	32768	
1140	0	32848	
1141	0	32844	
1142	0	32788	
1143	0	32824	
1144	0	32828	
1145	0	32896	
1146	0	32864	
1147	0	32812	
1148	0	32710	
1149	0	32768	
1150	0	32720	
1151	0	32756	
1152	0	32864	
1153	0	32842	
1154	0	32762	
1155	0	32860	
1156	0	32812	
1157	0	32820	
1158	0	32730	
1159	0	32756	
1160	0	32816	
1161	0	32804	
1162	0	32756	
1163	0	32832	
1164	0	32724	
1165	0	32752	
1166	0	32864	
1167	0	32832	
1168	0	32848	
1169	0	32824	
1170	0	32840	
1171	0	32812	
1172	0	32800	
1173	0	32816	
1174	0	32724	
1175	0	32764	
1176	0	32816	
1177	0	32764	
1178	0	32816	
1179	0	32828	
1180	0	32804	
1181	0	32892	
1182	0	32796	
1183	0	32860	
1184	0	32744	
1185	0	32856	
1186	0	32758	
1187	0	32780	
1188	0	32820	
1189	0	32780	
1190	0	32788	
1191	0	32816	
1192	0	32820	
1193	0	32832	
1194	0	32762	
1195	0	32772	
1196	0	32812	
1197	0	32784	
1198	0	32852	
1199	0	32834	
1200	0	32816	
1201	0	32834	
1202	0	32772	
1203	0	32796	
1204	0	32772	
1205	0	32820	
1206	0	32756	
1207	0	32782	
1208	0	32876	
1209	0	32744	
1210	0	32848	
1211	0	32744	
1212	0	32800	
1213	0	32856	
1214	0	32868	
1215	0	32804	
1216	0	32904	
1217	0	32858	
1218	0	32720	
1219	0	32738	
1220	0	32808	
1221	0	32840	
1222	0	32808	
1223	0	32830	
1224	0	32737	
1225	0	32760	
1226	0	32812	
1227	0	32798	
1228	0	32792	
1229	0	32832	
1230	0	32792	
1231	0	32868	
1232	0	32740	
1233	0	32760	
1234	0	32840	
1235	0	32824	
1236	0	32804	
1237	0	32756	
1238	0	32812	
1239	0	32836	
1240	0	32840	
1241	0	32836	
1242	0	32800	
1243	0	32804	
1244	0	32836	
1245	0	32812	
1246	0	32768	
1247	0	32804	
1248	0	32816	
1249	0	32872	
1250	0	32852	
1251	0	32820	
1252	0	32740	
1253	0	32812	
1254	0	32822	
1255	0	32838	
1256	0	32770	
1257	0	32792	
1258	0	32828	
1259	0	32756	
1260	0	32764	
1261	0	32696	
1262	0	32696	
1263	0	32736	
1264	0	32732	
1265	0	32796	
1266	0	32876	
1267	0	32856	
1268	0	32836	
1269	0	32896	
1270	0	32892	
1271	0	32800	
1272	0	32804	
1273	0	32786	
1274	0	32752	
1275	0	32828	
1276	0	32848	
1277	0	32836	
1278	0	32800	
1279	0	32836	
1280	0	32836	
1281	0	32840	
1282	0	32808	
1283	0	32796	
1284	0	32764	
1285	0	32844	
1286	0	32736	
1287	0	32756	
1288	0	32712	
1289	0	32772	
1290	0	32880	
1291	0	32840	
1292	0	32870	
1293	0	32828	
1294	0	32880	
1295	0	32768	
1296	0	32840	
1297	0	32820	
1298	0	32738	
1299	0	32748	
1300	0	32752	
1301	0	32780	
1302	0	32752	
1303	0	32872	
1304	0	32772	
1305	0	32796	
1306	0	32816	
1307	0	32824	
1308	0	32814	
1309	0	32868	
1310	0	32868	
1311	0	32788	
1312	0	32824	
1313	0	32780	
1314	0	32768	
1315	0	32776	
1316	0	32806	
1317	0	32804	
1318	0	32764	
1319	0	32736	
1320	0	32740	
1321	0	32800	
1322	0	32828	
1323	0	32852	
1324	0	32848	
1325	0	32844	
1326	0	32752	
1327	0	32904	
1328	0	32880	
1329	0	32868	
1330	0	32892	
1331	0	32776	
1332	0	32740	
1333	0	32712	
1334	0	32788	
1335	0	32932	
1336	0	32800	
1337	0	32814	
1338	0	32836	
1339	0	32724	
1340	0	32792	
1341	0	32798	
1342	0	32740	
1343	0	32792	
1344	0	32736	
1345	0	32780	
1346	0	32808	
1347	0	32792	
1348	0	32774	
1349	0	32816	
1350	0	32796	
1351	0	32794	
1352	0	32846	
1353	0	32840	
1354	0	32788	
1355	0	32770	
1356	0	32732	
1357	0	32856	
1358	0	32832	
1359	0	32792	
1360	0	32804	
1361	0	32832	
1362	0	32766	
1363	0	32820	
1364	0	32832	
1365	0	32736	
1366	0	32844	
1367	0	32840	
1368	0	32776	
1369	0	32728	
1370	0	32820	
1371	0	32824	
1372	0	32768	
1373	0	32852	
1374	0	32756	
1375	0	32796	
1376	0	32742	
1377	0	32784	
1378	0	32804	
1379	0	32816	
1380	0	32772	
1381	0	32852	
1382	0	32764	
1383	0	32816	
1384	0	32828	
1385	0	32768	
1386	0	32804	
1387	0	32828	
1388	0	32834	
1389	0	32800	
1390	0	32820	
1391	0	32848	
1392	0	32886	
1393	0	32768	
1394	0	32776	
1395	0	32728	
1396	0	32776	
1397	0	32796	
1398	0	32776	
1399	0	32808	
1400	0	32776	
1401	0	32790	
1402	0	32900	
1403	0	32756	
1404	0	32832	
1405	0	32804	
1406	0	32820	
1407	0	32826	
1408	0	32788	
1409	0	32836	
1410	0	32752	
1411	0	32744	
1412	0	32764	
1413	0	32680	
1414	0	32750	
1415	0	32774	
1416	0	32766	
1417	0	32772	
1418	0	32788	
1419	0	32720	
1420	0	32724	
1421	0	32780	
1422	0	32816	
1423	0	32830	
1424	0	32800	
1425	0	32848	
1426	0	32824	
1427	0	32844	
1428	0	32856	
1429	0	32816	
1430	0	32816	
1431	0	32812	
1432	0	32820	
1433	0	32802	
1434	0	32900	
1435	0	32880	
1436	0	32916	
1437	0	32784	
1438	0	32812	
1439	0	32824	
1440	0	32908	
1441	0	32888	
1442	0	32832	
1443	0	32824	
1444	0	32810	
1445	0	32724	
1446	0	32728	
1447	0	32824	
1448	0	32856	
1449	0	32824	
1450	0	32832	
1451	0	32768	
1452	0	32774	
1453	0	32828	
1454	0	32824	
1455	0	32768	
1456	0	32780	
1457	0	32780	
1458	0	32808	
1459	0	32744	
1460	0	32804	
1461	0	32800	
1462	0	32764	
1463	0	32852	
1464	0	32828	
1465	0	32704	
1466	0	32720	
1467	0	32752	
1468	0	32848	
1469	0	32848	
1470	0	32906	
1471	0	32800	
1472	0	32800	
1473	0	32780	
1474	0	32816	
1475	0	32762	
1476	0	32800	
1477	0	32820	
1478	0	32856	
1479	0	32796	
1480	0	32724	
1481	0	32778	
1482	0	32780	
1483	0	32836	
1484	0	32828	
1485	0	32826	
1486	0	32836	
1487	0	32856	
1488	0	32836	
1489	0	32864	
1490	0	32824	
1491	0	32714	
1492	0	32784	
1493	0	32746	
1494	0	32776	
1495	0	32804	
1496	0	32834	
1497	0	32828	
1498	0	32812	
1499	0	32840	
1500	0	32776	
1501	0	32818	
1502	0	32816	
1503	0	32780	
1504	0	32808	
1505	0	32828	
1506	0	32772	
1507	0	32912	
1508	0	32846	
1509	0	32840	
1510	0	32768	
1511	0	32796	
1512	0	32788	
1513	0	32836	
1514	0	32810	
1515	0	32824	
1516	0	32800	
1517	0	32798	
1518	0	32836	
1519	0	32754	
1520	0	32788	
1521	0	32780	
1522	0	32716	
1523	0	32808	
1524	0	32792	
1525	0	32812	
1526	0	32824	
1527	0	32804	
1528	0	32820	
1529	0	32834	
1530	0	32836	
1531	0	32844	
1532	0	32780	
1533	0	32792	
1534	0	32800	
1535	0	32806	
1536	0	32816	
1537	0	32736	
1538	0	32792	
1539	0	32820	
1540	0	32796	
1541	0	32744	
1542	0	32756	
1543	0	32841	
1544	0	32820	
1545	0	32720	
1546	0	32788	
1547	0	32796	
1548	0	32816	
1549	0	32812	
1550	0	32832	
1551	0	32748	
1552	0	32828	
1553	0	32880	
1554	0	32814	
1555	0	32864	
1556	0	32900	
1557	0	32808	
1558	0	32780	
1559	0	32730	
1560	0	32784	
1561	0	32796	
1562	0	32760	
1563	0	32880	
1564	0	32740	
1565	0	32860	
1566	0	32892	
1567	0	32744	
1568	0	32848	
1569	0	32820	
1570	0	32872	
1571	0	32728	
1572	0	32808	
1573	0	32760	
1574	0	32760	
1575	0	32796	
1576	0	32832	
1577	0	32796	
1578	0	32866	
1579	0	32800	
1580	0	32776	
1581	0	32784	
1582	0	32832	
1583	0	32822	
1584	0	32790	
1585	0	32808	
1586	0	32812	
1587	0	32796	
1588	0	32756	
1589	0	32840	
1590	0	32808	
1591	0	32752	
1592	0	32792	
1593	0	32810	
1594	0	32820	
1595	0	32700	
1596	0	32760	
1597	0	32776	
1598	0	32780	
1599	0	32824	
1600	0	32828	
1601	0	32972	
1602	0	32864	
1603	0	32860	
1604	0	32892	
1605	0	32800	
1606	0	32772	
1607	0	32788	
1608	0	32796	
1609	0	32800	
1610	0	32836	
1611	0	32756	
1612	0	32806	
1613	0	32824	
1614	0	32784	
1615	0	32840	
1616	0	32800	
1617	0	32812	
1618	0	32736	
1619	0	32696	
1620	0	32788	
1621	0	32800	
1622	0	32852	
1623	0	32792	
1624	0	32820	
1625	0	32840	
1626	0	32852	
1627	0	32736	
1628	0	32824	
1629	0	32828	
1630	0	32784	
1631	0	32826	
1632	0	32774	
1633	0	32788	
1634	0	32852	
1635	0	32756	
1636	0	32728	
1637	0	32832	
1638	0	32762	
1639	0	32772	
1640	0	32758	
1641	0	32872	
1642	0	32796	
1643	0	32844	
1644	0	32814	
1645	0	32840	
1646	0	32808	
1647	0	32840	
1648	0	32824	
1649	0	32864	
1650	0	32848	
1651	0	32780	
1652	0	32817	
1653	0	32788	
1654	0	32780	
1655	0	32684	
1656	0	32716	
1657	0	32740	
1658	0	32812	
1659	0	32800	
1660	0	32872	
1661	0	32884	
1662	0	32768	
1663	0	32821	
1664	0	32804	
1665	0	32772	
1666	0	32892	
1667	0	32800	
1668	0	32812	
1669	0	32844	
1670	0	32784	
1671	0	32696	
1672	0	32804	
1673	0	32840	
1674	0	32860	
1675	0	32744	
1676	0	32856	
1677	0	32833	
1678	0	32798	
1679	0	32808	
1680	0	32816	
1681	0	32720	
1682	0	32844	
1683	0	32876	
1684	0	32820	
1685	0	32792	
1686	0	32786	
1687	0	32796	
1688	0	32792	
1689	0	32770	
1690	0	32720	
1691	0	32812	
1692	0	32812	
1693	0	32816	
1694	0	32820	
1695	0	32804	
1696	0	32752	
1697	0	32840	
1698	0	32852	
1699	0	32775	
1700	0	32830	
1701	0	32886	
1702	0	32800	
1703	0	32780	
1704	0	32808	
1705	0	32836	
1706	0	32792	
1707	0	32804	
1708	0	32864	
1709	0	32804	
1710	0	32832	
1711	0	32776	
1712	0	32816	
1713	0	32808	
1714	0	32808	
1715	0	32775	
1716	0	32782	
1717	0	32824	
1718	0	32876	
1719	0	32812	
1720	0	32832	
1721	0	32848	
1722	0	32796	
1723	0	32768	
1724	0	32848	
1725	0	32704	
1726	0	32740	
1727	0	32820	
1728	0	32841	
1729	0	32774	
1730	0	32864	
1731	0	32720	
1732	0	32708	
1733	0	32712	
1734	0	32728	
1735	0	32844	
1736	0	32808	
1737	0	32824	
1738	0	32888	
1739	0	32920	
1740	0	32908	
1741	0	32912	
1742	0	32824	
1743	0	32880	
1744	0	32908	
1745	0	32792	
1746	0	32764	
1747	0	32552	
1748	0	32628	
1749	0	32700	
1750	0	32802	
1751	0	32784	
1752	0	32900	
1753	0	32854	
1754	0	32864	
1755	0	32796	
1756	0	32810	
1757	0	32828	
1758	0	32788	
1759	0	32788	
1760	0	32816	
1761	0	32772	
1762	0	32796	
1763	0	32796	
1764	0	32744	
1765	0	32864	
1766	0	32824	
1767	0	32824	
1768	0	32876	
1769	0	32800	
1770	0	32756	
1771	0	32764	
1772	0	32904	
1773	0	32744	
1774	0	32860	
1775	0	32804	
1776	0	32800	
1777	0	32824	
1778	0	32798	
1779	0	32804	
1780	0	32836	
1781	0	32776	
1782	0	32812	
1783	0	32832	
1784	0	32888	
1785	0	32868	
1786	0	32752	
1787	0	32736	
1788	0	32776	
1789	0	32768	
1790	0	32824	
1791	0	32800	
1792	0	32814	
1793	0	32820	
1794	0	32796	
1795	0	32756	
1796	0	32808	
1797	0	32775	
1798	0	32816	
1799	0	32852	
1800	0	32786	
1801	0	32874	
1802	0	32826	
1803	0	32824	
1804	0	32776	
1805	0	32792	
1806	0	32832	
1807	0	32780	
1808	0	32866	
1809	0	32804	
1810	0	32820	
1811	0	32762	
1812	0	32852	
1813	0	32816	
1814	0	32816	
1815	0	32772	
1816	0	32832	
1817	0	32812	
1818	0	32824	
1819	0	32780	
1820	0	32774	
1821	0	32798	
1822	0	32790	
1823	0	32840	
1824	0	32800	
1825	0	32768	
1826	0	32826	
1827	0	32726	
1828	0	32764	
1829	0	32744	
1830	0	32764	
1831	0	32816	
1832	0	32820	
1833	0	32840	
1834	0	32730	
1835	0	32858	
1836	0	32816	
1837	0	32872	
1838	0	32856	
1839	0	32804	
1840	0	32764	
1841	0	32784	
1842	0	32736	
1843	0	32752	
1844	0	32820	
1845	0	32808	
1846	0	32834	
1847	0	32824	
1848	0	32836	
1849	0	32816	
1850	0	32772	
1851	0	32768	
1852	0	32768	
1853	0	32904	
1854	0	32852	
1855	0	32844	
1856	0	32844	
1857	0	32860	
1858	0	32836	
1859	0	32748	
1860	0	32772	
1861	0	32824	
1862	0	32880	
1863	0	32812	
1864	0	32834	
1865	0	32792	
1866	0	32708	
1867	0	32740	
1868	0	32796	
1869	0	32896	
1870	0	32853	
1871	0	32776	
1872	0	32812	
1873	0	32750	
1874	0	32772	
1875	0	32792	
1876	0	32796	
1877	0	32760	
1878	0	32762	
1879	0	32760	
1880	0	32828	
1881	0	32796	
1882	0	32892	
1883	0	32844	
1884	0	32894	
1885	0	32810	
1886	0	32752	
1887	0	32860	
1888	0	32804	
1889	0	32852	
1890	0	32812	
1891	0	32776	
1892	0	32856	
1893	0	32760	
1894	0	32744	
1895	0	32776	
1896	0	32790	
1897	0	32872	
1898	0	32756	
1899	0	32812	
1900	0	32788	
1901	0	32800	
1902	0	32836	
1903	0	32768	
1904	0	32816	
1905	0	32856	
1906	0	32856	
1907	0	32744	
1908	0	32796	
1909	0	32812	
1910	0	32792	
1911	0	32756	
1912	0	32808	
1913	0	32796	
1914	0	32764	
1915	0	32800	
1916	0	32772	
1917	0	32852	
1918	0	32808	
1919	0	32848	
1920	0	32840	
1921	0	32874	
1922	0	32784	
1923	0	32772	
1924	0	32906	
1925	0	32804	
1926	0	32741	
1927	0	32796	
1928	0	32808	
1929	0	32816	
1930	0	32856	
1931	0	32884	
1932	0	32800	
1933	0	32744	
1934	0	32788	
1935	0	32708	
1936	0	32760	
1937	0	32724	
1938	0	32844	
1939	0	32840	
1940	0	32866	
1941	0	32852	
1942	0	32904	
1943	0	32812	
1944	0	32768	
1945	0	32796	
1946	0	32852	
1947	0	32844	
1948	0	32772	
1949	0	32728	
1950	0	32744	
1951	0	32768	
1952	0	32790	
1953	0	32896	
1954	0	32776	
1955	0	32820	
1956	0	32740	
1957	0	32756	
1958	0	32724	
1959	0	32828	
1960	0	32848	
1961	0	32760	
1962	0	32812	
1963	0	32714	
1964	0	32736	
1965	0	32790	
1966	0	32932	
1967	0	32856	
1968	0	32828	
1969	0	32876	
1970	0	32804	
1971	0	32812	
1972	0	32748	
1973	0	32772	
1974	0	32772	
1975	0	32848	
1976	0	32828	
1977	0	32760	
1978	0	32726	
1979	0	32856	
1980	0	32904	
1981	0	32750	
1982	0	32784	
1983	0	32736	
1984	0	32788	
1985	0	32784	
1986	0	32788	
1987	0	32764	
1988	0	32840	
1989	0	32808	
1990	0	32864	
1991	0	32820	
1992	0	32784	
1993	0	32852	
1994	0	32826	
1995	0	32776	
1996	0	32744	
1997	0	32812	
1998	0	32820	
1999	0	32816	
2000	0	32844	
2001	0	32852	
2002	0	32712	
2003	0	32864	
2004	0	32818	
2005	0	32824	
2006	0	32748	
2007	0	32824	
2008	0	32790	
2009	0	32668	
2010	0	32820	
2011	0	32764	
2012	0	32768	
2013	0	32872	
2014	0	32768	
2015	0	32796	
2016	0	32800	
2017	0	32864	
2018	0	32840	
2019	0	32848	
2020	0	32944	
2021	0	32832	
2022	0	32864	
2023	0	32864	
2024	0	32716	
2025	0	32844	
2026	0	32804	
2027	0	32828	
2028	0	32804	
2029	0	32808	
2030	0	32740	
2031	0	32868	
2032	0	32756	
2033	0	32856	
2034	0	32820	
2035	0	32720	
2036	0	32706	
2037	0	32652	
2038	0	32724	
2039	0	32744	
2040	0	32832	
2041	0	32881	
2042	0	32911	
2043	0	32888	
2044	0	32804	
2045	0	32836	
2046	0	32848	
2047	0	32772	
2048	0	32788	
2049	0	32832	
2050	0	32788	
2051	0	32804	
2052	0	32822	
2053	0	32832	
2054	0	32844	
2055	0	32778	
2056	0	32820	
2057	0	32788	
2058	0	32792	
2059	0	32872	
2060	0	32828	
2061	0	32748	
2062	0	32804	
2063	0	32762	
2064	0	32768	
2065	0	32808	
2066	0	32764	
2067	0	32812	
2068	0	32756	
2069	0	32820	
2070	0	32796	
2071	0	32808	
2072	0	32768	
2073	0	32832	
2074	0	32748	
2075	0	32796	
2076	0	32820	
2077	0	32832	
2078	0	32826	
2079	0	32868	
2080	0	32840	
2081	0	32864	
2082	0	32740	
2083	0	32780	
2084	0	32736	
2085	0	32800	
2086	0	32774	
2087	0	32848	
2088	0	32872	
2089	0	32762	
2090	0	32852	
2091	0	32832	
2092	0	32848	
2093	0	32724	
2094	0	32757	
2095	0	32796	
2096	0	32928	
2097	0	32800	
2098	0	32776	
2099	0	32796	
2100	0	32824	
2101	0	32836	
2102	0	32832	
2103	0	32812	
2104	0	32732	
2105	0	32844	
2106	0	32880	
2107	0	32792	
2108	0	32824	
2109	0	32808	
2110	0	32816	
2111	0	32856	
2112	0	32768	
2113	0	32828	
2114	0	32808	
2115	0	32820	
2116	0	32834	
2117	0	32812	
2118	0	32784	
2119	0	32794	
2120	0	32832	
2121	0	32816	
2122	0	32808	
2123	0	32796	
2124	0	32772	
2125	0	32844	
2126	0	32784	
2127	0	32834	
2128	0	32888	
2129	0	32837	
2130	0	32812	
2131	0	32796	
2132	0	32862	
2133	0	32772	
2134	0	32776	
2135	0	32796	
2136	0	32840	
2137	0	32816	
2138	0	32776	
2139	0	32860	
2140	0	32816	
2141	0	32840	
2142	0	32892	
2143	0	32800	
2144	0	32768	
2145	0	32696	
2146	0	32684	
2147	0	32772	
2148	0	32800	
2149	0	32792	
2150	0	32820	
2151	0	32848	
2152	0	32808	
2153	0	32792	
2154	0	32800	
2155	0	32736	
2156	0	32852	
2157	0	32824	
2158	0	32860	
2159	0	32820	
2160	0	32780	
2161	0	32833	
2162	0	32808	
2163	0	32856	
2164	0	32824	
2165	0	32820	
2166	0	32848	
2167	0	32832	
2168	0	32840	
2169	0	32754	
2170	0	32856	
2171	0	32880	
2172	0	32828	
2173	0	32804	
2174	0	32812	
2175	0	32812	
2176	0	32800	
2177	0	32892	
2178	0	32808	
2179	0	32724	
2180	0	32640	
2181	0	32740	
2182	0	32812	
2183	0	32840	
2184	0	32728	
2185	0	32792	
2186	0	32796	
2187	0	32848	
2188	0	32768	
2189	0	32804	
2190	0	32812	
2191	0	32772	
2192	0	32808	
2193	0	32810	
2194	0	32736	
2195	0	32824	
2196	0	32832	
2197	0	32834	
2198	0	32920	
2199	0	32808	
2200	0	32808	
2201	0	32840	
2202	0	32856	
2203	0	32784	
2204	0	32836	
2205	0	32840	
2206	0	32856	
2207	0	32748	
2208	0	32780	
2209	0	32814	
2210	0	32790	
2211	0	32824	
2212	0	32808	
2213	0	32872	
2214	0	32788	
2215	0	32832	
2216	0	32800	
2217	0	32764	
2218	0	32754	
2219	0	32804	
2220	0	32904	
2221	0	32836	
2222	0	32752	
2223	0	32740	
2224	0	32780	
2225	0	32728	
2226	0	32816	
2227	0	32836	
2228	0	32852	
2229	0	32864	
2230	0	32836	
2231	0	32788	
2232	0	32764	
2233	0	32820	
2234	0	32792	
2235	0	32702	
2236	0	32872	
2237	0	32842	
2238	0	32844	
2239	0	32868	
2240	0	32804	
2241	0	32772	
2242	0	32802	
2243	0	32764	
2244	0	32804	
2245	0	32808	
2246	0	32816	
2247	0	32840	
2248	0	32836	
2249	0	32832	
2250	0	32780	
2251	0	32796	
2252	0	32815	
2253	0	32824	
2254	0	32760	
2255	0	32788	
2256	0	32824	
2257	0	32772	
2258	0	32828	
2259	0	32788	
2260	0	32806	
2261	0	32826	
2262	0	32888	
2263	0	32884	
2264	0	32796	
2265	0	32848	
2266	0	32854	
2267	0	32906	
2268	0	32828	
2269	0	32790	
2270	0	32764	
2271	0	32768	
2272	0	32734	
2273	0	32788	
2274	0	32804	
2275	0	32820	
2276	0	32784	
2277	0	32868	
2278	0	32808	
2279	0	32816	
2280	0	32856	
2281	0	32848	
2282	0	32716	
2283	0	32716	
2284	0	32656	
2285	0	32892	
2286	0	32776	
2287	0	32688	
2288	0	32772	
2289	0	32748	
2290	0	32692	
2291	0	32800	
2292	0	32742	
2293	0	32816	
2294	0	32794	
2295	0	32760	
2296	0	32780	
2297	0	32758	
2298	0	32848	
2299	0	32848	
2300	0	32824	
2301	0	32816	
2302	0	32840	
2303	0	32796	
2304	0	32908	
2305	0	32876	
2306	0	32932	
2307	0	32808	
2308	0	32746	
2309	0	32780	
2310	0	32820	
2311	0	32856	
2312	0	32868	
2313	0	32900	
2314	0	32868	
2315	0	32856	
2316	0	32884	
2317	0	32828	
2318	0	32756	
2319	0	32796	
2320	0	32760	
2321	0	32832	
2322	0	32892	
2323	0	32792	
2324	0	32764	
2325	0	32764	
2326	0	32780	
2327	0	32752	
2328	0	32872	
2329	0	32804	
2330	0	32834	
2331	0	32844	
2332	0	32800	
2333	0	32746	
2334	0	32778	
2335	0	32788	
2336	0	32812	
2337	0	32852	
2338	0	32824	
2339	0	32816	
2340	0	32736	
2341	0	32736	
2342	0	32812	
2343	0	32860	
2344	0	32812	
2345	0	32660	
2346	0	32692	
2347	0	32756	
2348	0	32812	
2349	0	32804	
2350	0	32856	
2351	0	32776	
2352	0	32792	
2353	0	32804	
2354	0	32832	
2355	0	32788	
2356	0	32800	
2357	0	32720	
2358	0	32716	
2359	0	32780	
2360	0	32836	
2361	0	32788	
2362	0	32748	
2363	0	32768	
2364	0	32780	
2365	0	32916	
2366	0	32886	
2367	0	32796	
2368	0	32776	
2369	0	32764	
2370	0	32904	
2371	0	32840	
2372	0	32816	
2373	0	32766	
2374	0	32732	
2375	0	32740	
2376	0	32808	
2377	0	32804	
2378	0	32862	
2379	0	32884	
2380	0	32868	
2381	0	32768	
2382	0	32840	
2383	0	32812	
2384	0	32824	
2385	0	32812	
2386	0	32818	
2387	0	32832	
2388	0	32736	
2389	0	32756	
2390	0	32808	
2391	0	32836	
2392	0	32760	
2393	0	32784	
2394	0	32736	
2395	0	32801	
2396	0	32768	
2397	0	32796	
2398	0	32804	
2399	0	32856	
2400	0	32812	
2401	0	32736	
2402	0	32776	
2403	0	32768	
2404	0	32792	
2405	0	32868	
2406	0	32864	
2407	0	32808	
2408	0	32788	
2409	0	32860	
2410	0	32816	
2411	0	32816	
2412	0	32792	
2413	0	32740	
2414	0	32668	
2415	0	32750	
2416	0	32800	
2417	0	32856	
2418	0	32808	
2419	0	32760	
2420	0	32816	
2421	0	32740	
2422	0	32812	
2423	0	32796	
2424	0	32904	
2425	0	32832	
2426	0	32864	
2427	0	32824	
2428	0	32852	
2429	0	32824	
2430	0	32828	
2431	0	32892	
2432	0	32848	
2433	0	32848	
2434	0	32808	
2435	0	32780	
2436	0	32832	
2437	0	32748	
2438	0	32858	
2439	0	32744	
2440	0	32816	
2441	0	32680	
2442	0	32752	
2443	0	32848	
2444	0	32848	
2445	0	32740	
2446	0	32748	
2447	0	32818	
2448	0	32816	
2449	0	32812	
2450	0	32832	
2451	0	32814	
2452	0	32788	
2453	0	32830	
2454	0	32800	
2455	0	32808	
2456	0	32768	
2457	0	32872	
2458	0	32836	
2459	0	32796	
2460	0	32768	
2461	0	32792	
2462	0	32820	
2463	0	32826	
2464	0	32824	
2465	0	32804	
2466	0	32780	
2467	0	32824	
2468	0	32713	
2469	0	32820	
2470	0	32844	
2471	0	32772	
2472	0	32794	
2473	0	32784	
2474	0	32828	
2475	0	32876	
2476	0	32832	
2477	0	32812	
2478	0	32762	
2479	0	32766	
2480	0	32794	
2481	0	32816	
2482	0	32820	
2483	0	32794	
2484	0	32868	
2485	0	32792	
2486	0	32772	
2487	0	32730	
2488	0	32820	
2489	0	32802	
2490	0	32772	
2491	0	32752	
2492	0	32708	
2493	0	32796	
2494	0	32844	
2495	0	32876	
2496	0	32808	
2497	0	32760	
2498	0	32842	
2499	0	32852	
2500	0	32784	
2501	0	32730	
2502	0	32864	
2503	0	32834	
2504	0	32800	
2505	0	32820	
2506	0	32732	
2507	0	32784	
2508	0	32820	
2509	0	32860	
2510	0	32850	
2511	0	32832	
2512	0	32800	
2513	0	32720	
2514	0	32792	
2515	0	32828	
2516	0	32832	
2517	0	32776	
2518	0	32816	
2519	0	32780	
2520	0	32808	
2521	0	32794	
2522	0	32748	
2523	0	32850	
2524	0	32804	
2525	0	32908	
2526	0	32832	
2527	0	32896	
2528	0	32840	
2529	0	32768	
2530	0	32808	
2531	0	32772	
2532	0	32816	
2533	0	32782	
2534	0	32840	
2535	0	32800	
2536	0	32876	
2537	0	32784	
2538	0	32704	
2539	0	32758	
2540	0	32744	
2541	0	32840	
2542	0	32792	
2543	0	32800	
2544	0	32748	
2545	0	32812	
2546	0	32834	
2547	0	32824	
2548	0	32828	
2549	0	32840	
2550	0	32784	
2551	0	32856	
2552	0	32772	
2553	0	32776	
2554	0	32772	
2555	0	32756	
2556	0	32788	
2557	0	32804	
2558	0	32764	
2559	0	32816	
2560	0	32768	
2561	0	32844	
2562	0	32848	
2563	0	32860	
2564	0	32760	
2565	0	32760	
2566	0	32836	
2567	0	32844	
2568	0	32808	
2569	0	32796	
2570	0	32774	
2571	0	32802	
2572	0	32764	
2573	0	32888	
2574	0	32808	
2575	0	32680	
2576	0	32808	
2577	0	32794	
2578	0	32764	
2579	0	32808	
2580	0	32784	
2581	0	32844	
2582	0	32916	
2583	0	32896	
2584	0	32820	
2585	0	32812	
2586	0	32764	
2587	0	32760	
2588	0	32736	
2589	0	32696	
2590	0	32788	
2591	0	32836	
2592	0	32780	
2593	0	32776	
2594	0	32904	
2595	0	32876	
2596	0	32808	
2597	0	32880	
2598	0	32868	
2599	0	32856	
2600	0	32810	
2601	0	32748	
2602	0	32844	
2603	0	32868	
2604	0	32844	
2605	0	32820	
2606	0	32904	
2607	0	32734	
2608	0	32640	
2609	0	32696	
2610	0	32772	
2611	0	32752	
2612	0	32832	
2613	0	32800	
2614	0	32738	
2615	0	32702	
2616	0	32788	
2617	0	32732	
2618	0	32816	
2619	0	32788	
2620	0	32860	
2621	0	32824	
2622	0	32808	
2623	0	32852	
2624	0	32776	
2625	0	32772	
2626	0	32840	
2627	0	32848	
2628	0	32792	
2629	0	32840	
2630	0	32600	
2631	0	32428	
2632	0	32397	
2633	0	32408	
2634	0	32152	
2635	0	29128	
2636	0	25468	
2637	0	22112	
2638	0	23704	
2639	0	26108	
2640	0	28616	
2641	0	30904	
2642	0	31784	
2643	0	32727	
2644	0	33534	
2645	0	34012	
2646	0	34416	
2647	0	34596	
2648	0	34892	
2649	0	35080	
2650	0	35344	
2651	0	36444	
2652	0	36836	
2653	0	36244	
2654	0	35480	
2655	0	34968	
2656	0	34448	
2657	0	34014	
2658	0	33988	
2659	0	34036	
2660	0	34220	
2661	0	34160	
2662	0	33912	
2663	0	33704	
2664	0	33544	
2665	0	33192	
2666	0	33216	
2667	0	32932	
2668	0	32892	
2669	0	32742	
2670	0	32734	
2671	0	32664	
2672	0	32568	
2673	0	32524	
2674	0	32444	
2675	0	32644	
2676	0	32460	
2677	0	32712	
2678	0	32900	
2679	0	32900	
2680	0	32816	
2681	0	32976	
2682	0	33116	
2683	0	33096	
2684	0	33072	
2685	0	33044	
2686	0	32972	
2687	0	32972	
2688	0	33152	
2689	0	33232	
2690	0	33287	
2691	0	33396	
2692	0	33224	
2693	0	33176	
2694	0	33144	
2695	0	33408	
2696	0	33896	
2697	0	33708	
2698	0	33056	
2699	0	32620	
2700	0	32728	
2701	0	32888	
2702	0	32900	
2703	0	32826	
2704	0	33028	
2705	0	32998	
2706	0	32996	
2707	0	33216	
2708	0	33252	
2709	0	32996	
2710	0	33016	
2711	0	33052	
2712	0	33040	
2713	0	32896	
2714	0	32728	
2715	0	32784	
2716	0	32800	
2717	0	32816	
2718	0	32868	
2719	0	32916	
2720	0	32932	
2721	0	32936	
2722	0	32952	
2723	0	33024	
2724	0	33060	
2725	0	33108	
2726	0	33102	
2727	0	33108	
2728	0	33184	
2729	0	33248	
2730	0	33188	
2731	0	33208	
2732	0	33008	
2733	0	33076	
2734	0	33120	
2735	0	32904	
2736	0	32896	
2737	0	32960	
2738	0	33068	
2739	0	33152	
2740	0	33280	
2741	0	33368	
2742	0	33540	
2743	0	33684	
2744	0	33796	
2745	0	34184	
2746	0	33980	
2747	0	33728	
2748	0	33672	
2749	0	33124	
2750	0	32736	
2751	0	32608	
2752	0	32588	
2753	0	32604	
2754	0	32606	
2755	0	32300	
2756	0	32180	
2757	0	32192	
2758	0	32232	
2759	0	32288	
2760	0	32356	
2761	0	32396	
2762	0	32320	
2763	0	32376	
2764	0	32384	
2765	0	32480	
2766	0	32449	
2767	0	32516	
2768	0	32580	
2769	0	32576	
2770	0	32296	
2771	0	32212	
2772	0	32192	
2773	0	32240	
2774	0	32132	
2775	0	32294	
2776	0	32596	
2777	0	32972	
2778	0	33078	
2779	0	32832	
2780	0	32740	
2781	0	32728	
2782	0	32800	
2783	0	32584	
2784	0	32208	
2785	0	31984	
2786	0	32320	
2787	0	32602	
2788	0	32628	
2789	0	32720	
2790	0	32812	
2791	0	32796	
2792	0	32748	
2793	0	32640	
2794	0	32676	
2795	0	32708	
2796	0	32764	
2797	0	32980	
2798	0	32908	
2799	0	32980	
2800	0	33072	
2801	0	32944	
2802	0	32856	
2803	0	32742	
2804	0	32720	
2805	0	32736	
2806	0	32676	
2807	0	32712	
2808	0	32736	
2809	0	32736	
2810	0	32712	
2811	0	32700	
2812	0	32734	
2813	0	32732	
2814	0	32872	
2815	0	32784	
2816	0	32776	
2817	0	32770	
2818	0	32852	
2819	0	32860	
2820	0	32828	
2821	0	32864	
2822	0	32832	
2823	0	32774	
2824	0	32816	
2825	0	32848	
2826	0	32774	
2827	0	32628	
2828	0	32636	
2829	0	32676	
2830	0	32698	
2831	0	32740	
2832	0	32888	
2833	0	32840	
2834	0	32864	
2835	0	32736	
2836	0	32750	
2837	0	32716	
2838	0	32832	
2839	0	32864	
2840	0	32800	
2841	0	32668	
2842	0	32736	
2843	0	32712	
2844	0	32724	
2845	0	32926	
2846	0	33032	
2847	0	33188	
2848	0	32996	
2849	0	32808	
2850	0	32704	
2851	0	32560	
2852	0	32672	
2853	0	32648	
2854	0	32768	
2855	0	32748	
2856	0	32820	
2857	0	32936	
2858	0	33076	
2859	0	33020	
2860	0	32944	
2861	0	33048	
2862	0	33132	
2863	0	33172	
2864	0	32940	
2865	0	32728	
2866	0	32612	
2867	0	32542	
2868	0	32448	
2869	0	32404	
2870	0	32560	
2871	0	32538	
2872	0	32652	
2873	0	32784	
2874	0	32696	
2875	0	32744	
2876	0	32688	
2877	0	32772	
2878	0	32704	
2879	0	32792	
2880	0	32820	
2881	0	32756	
2882	0	32832	
2883	0	32788	
2884	0	32772	
2885	0	32840	
2886	0	32810	
2887	0	32782	
2888	0	32824	
2889	0	32832	
2890	0	32816	
2891	0	32865	
2892	0	32824	
2893	0	32844	
2894	0	32752	
2895	0	32762	
2896	0	32792	
2897	0	32752	
2898	0	32782	
2899	0	32976	
2900	0	32892	
2901	0	32812	
2902	0	32896	
2903	0	32844	
2904	0	32824	
2905	0	32700	
2906	0	32588	
2907	0	32612	
2908	0	32692	
2909	0	32830	
2910	0	33008	
2911	0	32750	
2912	0	32772	
2913	0	32896	
2914	0	32856	
2915	0	32928	
2916	0	32808	
2917	0	32848	
2918	0	32866	
2919	0	32872	
2920	0	32848	
2921	0	32814	
2922	0	32796	
2923	0	32788	
2924	0	32664	
2925	0	32668	
2926	0	32708	
2927	0	32744	
2928	0	32820	
2929	0	32848	
2930	0	32808	
2931	0	32768	
2932	0	32752	
2933	0	32824	
2934	0	32828	
2935	0	32896	
2936	0	32808	
2937	0	32784	
2938	0	32804	
2939	0	32888	
2940	0	32865	
2941	0	32804	
2942	0	32788	
2943	0	32848	
2944	0	32756	
2945	0	32796	
2946	0	32768	
2947	0	32816	
2948	0	32778	
2949	0	32832	
2950	0	32822	
2951	0	32736	
2952	0	32740	
2953	0	32788	
2954	0	32768	
2955	0	32752	
2956	0	32775	
2957	0	32752	
2958	0	32740	
2959	0	32794	
2960	0	32868	
2961	0	32816	
2962	0	32872	
2963	0	32784	
2964	0	32832	
2965	0	32810	
2966	0	32828	
2967	0	32844	
2968	0	32738	
2969	0	32844	
2970	0	32850	
2971	0	32774	
2972	0	32784	
2973	0	32804	
2974	0	32820	
2975	0	32764	
2976	0	32644	
2977	0	32786	
2978	0	32780	
2979	0	32872	
2980	0	32724	
2981	0	32840	
2982	0	32844	
2983	0	32864	
2984	0	32816	
2985	0	32820	
2986	0	32740	
2987	0	32728	
2988	0	32704	
2989	0	32792	
2990	0	32814	
2991	0	32868	
2992	0	32840	
2993	0	32844	
2994	0	32858	
2995	0	32744	
2996	0	32736	
2997	0	32784	
2998	0	32720	
2999	0	32856	
3000	0	32808	
3001	0	32816	
3002	0	32816	
3003	0	32774	
3004	0	32760	
3005	0	32780	
3006	0	32764	
3007	0	32836	
3008	0	32832	
3009	0	32798	
3010	0	32808	
3011	0	32776	
3012	0	32788	
3013	0	32780	
3014	0	32792	
3015	0	32820	
3016	0	32775	
3017	0	32788	
3018	0	32804	
3019	0	32800	
3020	0	32808	
3021	0	32812	
3022	0	32792	
3023	0	32756	
3024	0	32768	
3025	0	32772	
3026	0	32852	
3027	0	32772	
3028	0	32780	
3029	0	32756	
3030	0	32868	
3031	0	32766	
3032	0	32868	
3033	0	32816	
3034	0	32776	
3035	0	32784	
3036	0	32840	
3037	0	32830	
3038	0	32836	
3039	0	32868	
3040	0	32848	
3041	0	32844	
3042	0	32824	
3043	0	32836	
3044	0	32824	
3045	0	32750	
3046	0	32824	
3047	0	32736	
3048	0	32688	
3049	0	32648	
3050	0	32764	
3051	0	32804	
3052	0	32968	
3053	0	32900	
3054	0	32812	
3055	0	32656	
3056	0	32756	
3057	0	32856	
3058	0	32844	
3059	0	32794	
3060	0	32728	
3061	0	32644	
3062	0	32792	
3063	0	32924	
3064	0	32884	
3065	0	32904	
3066	0	32788	
3067	0	32856	
3068	0	32836	
3069	0	32776	
3070	0	32756	
3071	0	32700	
3072	0	32684	
3073	0	32864	
3074	0	32792	
3075	0	32868	
3076	0	32800	
3077	0	32868	
3078	0	32840	
3079	0	32864	
3080	0	32784	
3081	0	32788	
3082	0	32840	
3083	0	32900	
3084	0	33012	
3085	0	32960	
3086	0	32812	
3087	0	32800	
3088	0	32804	
3089	0	32746	
3090	0	32648	
3091	0	32632	
3092	0	32676	
3093	0	32724	
3094	0	32826	
3095	0	32820	
3096	0	32748	
3097	0	32836	
3098	0	32816	
3099	0	32760	
3100	0	32768	
3101	0	32860	
3102	0	32804	
3103	0	32764	
3104	0	32764	
3105	0	32944	
3106	0	32881	
3107	0	32964	
3108	0	32934	
3109	0	32888	
3110	0	32856	
3111	0	32780	
3112	0	32772	
3113	0	32732	
3114	0	32772	
3115	0	32712	
3116	0	32704	
3117	0	32800	
3118	0	32760	
3119	0	32764	
3120	0	32730	
3121	0	32716	
3122	0	32788	
3123	0	32780	
3124	0	32934	
3125	0	32828	
3126	0	32810	
3127	0	32798	
3128	0	32868	
3129	0	32782	
3130	0	32796	
3131	0	32784	
3132	0	32844	
3133	0	32744	
3134	0	32748	
3135	0	32832	
3136	0	32852	
3137	0	32852	
3138	0	32804	
3139	0	32849	
3140	0	32792	
3141	0	32764	
3142	0	32832	
3143	0	32908	
3144	0	32820	
3145	0	32796	
3146	0	32828	
3147	0	32884	
3148	0	32828	
3149	0	32860	
3150	0	32792	
3151	0	32544	
3152	0	32580	
3153	0	32708	
3154	0	32756	
3155	0	32720	
3156	0	32808	
3157	0	32804	
3158	0	32808	
3159	0	32760	
3160	0	32762	
3161	0	32836	
3162	0	32792	
3163	0	32820	
3164	0	32775	
3165	0	32816	
3166	0	32804	
3167	0	32864	
3168	0	32804	
3169	0	32624	
3170	0	32644	
3171	0	32824	
3172	0	32872	
3173	0	32772	
3174	0	32776	
3175	0	32852	
3176	0	32865	
3177	0	32904	
3178	0	32921	
3179	0	32860	
3180	0	32824	
3181	0	32880	
3182	0	32848	
3183	0	32848	
3184	0	32838	
3185	0	32804	
3186	0	32736	
3187	0	32780	
3188	0	32792	
3189	0	32836	
3190	0	32900	
3191	0	32828	
3192	0	32856	
3193	0	32792	
3194	0	32754	
3195	0	32816	
3196	0	32840	
3197	0	32784	
3198	0	32857	
3199	0	32808	
3200	0	32712	
3201	0	32736	
3202	0	32856	
3203	0	32964	
3204	0	32880	
3205	0	32872	
3206	0	32940	
3207	0	32804	
3208	0	32766	
3209	0	32725	
3210	0	32768	
3211	0	32776	
3212	0	32756	
3213	0	32676	
3214	0	32632	
3215	0	32836	
3216	0	32832	
3217	0	32832	
3218	0	32872	
3219	0	32866	
3220	0	32890	
3221	0	32804	
3222	0	32804	
3223	0	32776	
3224	0	32768	
3225	0	32712	
3226	0	32716	
3227	0	32772	
3228	0	32796	
3229	0	32804	
3230	0	32788	
3231	0	32824	
3232	0	32788	
3233	0	32800	
3234	0	32756	
3235	0	32840	
3236	0	32936	
3237	0	32968	
3238	0	32868	
3239	0	32712	
3240	0	32756	
3241	0	32728	
3242	0	32784	
3243	0	32750	
3244	0	32744	
3245	0	32784	
3246	0	32848	
3247	0	32840	
3248	0	32788	
3249	0	32844	
3250	0	32868	
3251	0	32864	
3252	0	32804	
3253	0	32672	
3254	0	32578	
3255	0	32704	
3256	0	32800	
3257	0	32852	
3258	0	32840	
3259	0	32824	
3260	0	32832	
3261	0	32898	
3262	0	32800	
3263	0	32774	
3264	0	32760	
3265	0	32800	
3266	0	32816	
3267	0	32880	
3268	0	32804	
3269	0	32784	
3270	0	32844	
3271	0	32740	
3272	0	32832	
3273	0	32784	
3274	0	32816	
3275	0	32892	
3276	0	32864	
3277	0	32802	
3278	0	32714	
3279	0	32812	
3280	0	32862	
3281	0	32918	
3282	0	32908	
3283	0	32896	
3284	0	32836	
3285	0	32836	
3286	0	32768	
3287	0	32776	
3288	0	32716	
3289	0	32724	
3290	0	32688	
3291	0	32656	
3292	0	32752	
3293	0	32768	
3294	0	32764	
3295	0	32736	
3296	0	32712	
3297	0	32740	
3298	0	32796	
3299	0	32866	
3300	0	32866	
3301	0	32892	
3302	0	32814	
3303	0	32852	
3304	0	32902	
3305	0	32900	
3306	0	32820	
3307	0	32726	
3308	0	32748	
3309	0	32792	
3310	0	32768	
3311	0	32844	
3312	0	32932	
3313	0	32856	
3314	0	32672	
3315	0	32676	
3316	0	32732	
3317	0	32792	
3318	0	32806	
3319	0	32736	
3320	0	32794	
3321	0	32872	
3322	0	32860	
3323	0	32820	
3324	0	32892	
3325	0	32732	
3326	0	32750	
3327	0	32816	
3328	0	32820	
3329	0	32860	
3330	0	32824	
3331	0	32820	
3332	0	32784	
3333	0	32924	
3334	0	32788	
3335	0	32764	
3336	0	32768	
3337	0	32848	
3338	0	32900	
3339	0	32790	
3340	0	32872	
3341	0	32724	
3342	0	32832	
3343	0	32768	
3344	0	32780	
3345	0	32728	
3346	0	32696	
3347	0	32592	
3348	0	32800	
3349	0	32808	
3350	0	32862	
3351	0	32834	
3352	0	32808	
3353	0	32844	
3354	0	32784	
3355	0	32768	
3356	0	32864	
3357	0	32784	
3358	0	32714	
3359	0	32804	
3360	0	32856	
3361	0	32848	
3362	0	32888	
3363	0	32892	
3364	0	32880	
3365	0	32760	
3366	0	32856	
3367	0	32841	
3368	0	32800	
3369	0	32820	
3370	0	32796	
3371	0	32708	
3372	0	32724	
3373	0	32800	
3374	0	32856	
3375	0	32801	
3376	0	32816	
3377	0	32744	
3378	0	32760	
3379	0	32760	
3380	0	32828	
3381	0	32852	
3382	0	32804	
3383	0	32772	
3384	0	32756	
3385	0	32816	
3386	0	32716	
3387	0	32804	
3388	0	32776	
3389	0	32856	
3390	0	32832	
3391	0	32892	
3392	0	32780	
3393	0	32800	
3394	0	32796	
3395	0	32800	
3396	0	32860	
3397	0	32828	
3398	0	32834	
3399	0	32688	
3400	0	32780	
3401	0	32836	
3402	0	32808	
3403	0	32764	
3404	0	32768	
3405	0	32884	
3406	0	32920	
3407	0	32872	
3408	0	32836	
3409	0	32716	
3410	0	32784	
3411	0	32792	
3412	0	32812	
3413	0	32796	
3414	0	32808	
3415	0	32776	
3416	0	32688	
3417	0	32784	
3418	0	32724	
3419	0	32728	
3420	0	32704	
3421	0	32768	
3422	0	32858	
3423	0	32872	
3424	0	32796	
3425	0	32904	
3426	0	32876	
3427	0	32928	
3428	0	32952	
3429	0	32868	
3430	0	32812	
3431	0	32870	
3432	0	32832	
3433	0	32800	
3434	0	32728	
3435	0	32792	
3436	0	32772	
3437	0	32756	
3438	0	32769	
3439	0	32816	
3440	0	32752	
3441	0	32728	
3442	0	32800	
3443	0	32828	
3444	0	32762	
3445	0	32778	
3446	0	32848	
3447	0	32832	
3448	0	32860	
3449	0	32836	
3450	0	32776	
3451	0	32794	
3452	0	32844	
3453	0	32820	
3454	0	32772	
3455	0	32792	
3456	0	32732	
3457	0	32764	
3458	0	32748	
3459	0	32800	
3460	0	32812	
3461	0	32828	
3462	0	32818	
3463	0	32868	
3464	0	32842	
3465	0	32856	
3466	0	32890	
3467	0	32816	
3468	0	32748	
3469	0	32652	
3470	0	32716	
3471	0	32788	
3472	0	32836	
3473	0	32760	
3474	0	32848	
3475	0	32800	
3476	0	32784	
3477	0	32740	
3478	0	32744	
3479	0	32812	
3480	0	32744	
3481	0	32856	
3482	0	32880	
3483	0	32772	
3484	0	32846	
3485	0	32796	
3486	0	32828	
3487	0	32756	
3488	0	32864	
3489	0	32828	
3490	0	32910	
3491	0	32706	
3492	0	32776	
3493	0	32872	
3494	0	32932	
3495	0	32852	
3496	0	32848	
3497	0	32712	
3498	0	32748	
3499	0	32772	
3500	0	32758	
3501	0	32716	
3502	0	32704	
3503	0	32816	
3504	0	32888	
3505	0	32788	
3506	0	32808	
3507	0	32752	
3508	0	32756	
3509	0	32872	
3510	0	32816	
3511	0	32788	
3512	0	32788	
3513	0	32812	
3514	0	32896	
3515	0	33028	
3516	0	32880	
3517	0	32862	
3518	0	32804	
3519	0	32708	
3520	0	32760	
3521	0	32844	
3522	0	32792	
3523	0	32796	
3524	0	32888	
3525	0	32888	
3526	0	32848	
3527	0	32832	
3528	0	32772	
3529	0	32848	
3530	0	32704	
3531	0	32744	
3532	0	32664	
3533	0	32680	
3534	0	32778	
3535	0	32796	
3536	0	32734	
3537	0	32796	
3538	0	32776	
3539	0	32840	
3540	0	32866	
3541	0	32770	
3542	0	32860	
3543	0	32930	
3544	0	32912	
3545	0	32768	
3546	0	32784	
3547	0	32800	
3548	0	32872	
3549	0	32756	
3550	0	32768	
3551	0	32732	
3552	0	32752	
3553	0	32808	
3554	0	32856	
3555	0	32836	
3556	0	32808	
3557	0	32764	
3558	0	32832	
3559	0	32796	
3560	0	32794	
3561	0	32764	
3562	0	32844	
3563	0	32840	
3564	0	32844	
3565	0	32824	
3566	0	32836	
3567	0	32784	
3568	0	32808	
3569	0	32761	
3570	0	32832	
3571	0	32788	
3572	0	32920	
3573	0	32876	
3574	0	32742	
3575	0	32704	
3576	0	32760	
3577	0	32812	
3578	0	32796	
3579	0	32820	
3580	0	32928	
3581	0	32892	
3582	0	32886	
3583	0	32816	
3584	0	32780	
3585	0	32832	
3586	0	32774	
3587	0	32744	
3588	0	32775	
3589	0	32730	
3590	0	32676	
3591	0	32744	
3592	0	32826	
3593	0	32864	
3594	0	32900	
3595	0	32852	
3596	0	32832	
3597	0	32788	
3598	0	32748	
3599	0	32812	
3600	0	32828	
3601	0	32880	
3602	0	32946	
3603	0	32832	
3604	0	32800	
3605	0	32844	
3606	0	32800	
3607	0	32836	
3608	0	32840	
3609	0	32784	
3610	0	32818	
3611	0	32728	
3612	0	32784	
3613	0	32804	
3614	0	32660	
3615	0	32784	
3616	0	32804	
3617	0	32824	
3618	0	32716	
3619	0	32744	
3620	0	32796	
3621	0	32872	
3622	0	32836	
3623	0	32824	
3624	0	32868	
3625	0	32776	
3626	0	32812	
3627	0	32874	
3628	0	32780	
3629	0	32842	
3630	0	32712	
3631	0	32704	
3632	0	32900	
3633	0	32864	
3634	0	32800	
3635	0	32728	
3636	0	32836	
3637	0	32774	
3638	0	32768	
3639	0	32784	
3640	0	32836	
3641	0	32896	
3642	0	32860	
3643	0	32813	
3644	0	32780	
3645	0	32770	
3646	0	32756	
3647	0	32904	
3648	0	32988	
3649	0	32860	
3650	0	32868	
3651	0	32844	
3652	0	32876	
3653	0	32732	
3654	0	32856	
3655	0	32780	
3656	0	32750	
3657	0	32736	
3658	0	32760	
3659	0	32708	
3660	0	32712	
3661	0	32774	
3662	0	32840	
3663	0	32908	
3664	0	32858	
3665	0	32788	
3666	0	32852	
3667	0	32816	
3668	0	32792	
3669	0	32776	
3670	0	32774	
3671	0	32896	
3672	0	32724	
3673	0	32776	
3674	0	32736	
3675	0	32844	
3676	0	32782	
3677	0	32800	
3678	0	32744	
3679	0	32796	
3680	0	32752	
3681	0	32852	
3682	0	32768	
3683	0	32754	
3684	0	32792	
3685	0	32952	
3686	0	32812	
3687	0	32708	
3688	0	32706	
3689	0	32952	
3690	0	32916	
3691	0	32944	
3692	0	32852	
3693	0	32850	
3694	0	32900	
3695	0	32922	
3696	0	32752	
3697	0	32652	
3698	0	32744	
3699	0	32730	
3700	0	32720	
3701	0	32778	
3702	0	32820	
3703	0	32896	
3704	0	32812	
3705	0	32748	
3706	0	32836	
3707	0	32824	
3708	0	32796	
3709	0	32860	
3710	0	32848	
3711	0	32948	
3712	0	32820	
3713	0	32736	
3714	0	32596	
3715	0	32736	
3716	0	32820	
3717	0	32738	
3718	0	32804	
3719	0	32748	
3720	0	32796	
3721	0	32788	
3722	0	32712	
3723	0	32776	
3724	0	32814	
3725	0	32792	
3726	0	32680	
3727	0	32636	
3728	0	32804	
3729	0	32912	
3730	0	32932	
3731	0	32916	
3732	0	32930	
3733	0	32876	
3734	0	32906	
3735	0	32948	
3736	0	32860	
3737	0	32816	
3738	0	32792	
3739	0	32796	
3740	0	32820	
3741	0	32804	
3742	0	32756	
3743	0	32758	
3744	0	32804	
3745	0	32752	
3746	0	32772	
3747	0	32820	
3748	0	32744	
3749	0	32768	
3750	0	32788	
3751	0	32786	
3752	0	32854	
3753	0	32876	
3754	0	32828	
3755	0	32724	
3756	0	32712	
3757	0	32756	
3758	0	32808	
3759	0	32820	
3760	0	32796	
3761	0	32720	
3762	0	32832	
3763	0	32768	
3764	0	32800	
3765	0	32756	
3766	0	32864	
3767	0	32816	
3768	0	32812	
3769	0	32748	
3770	0	32780	
3771	0	32736	
3772	0	32784	
3773	0	32872	
3774	0	32824	
3775	0	32848	
3776	0	32820	
3777	0	32788	
3778	0	32866	
3779	0	32844	
3780	0	32860	
3781	0	32824	
3782	0	32844	
3783	0	32840	
3784	0	32912	
3785	0	32872	
3786	0	32720	
3787	0	32764	
3788	0	32744	
3789	0	32814	
3790	0	32804	
3791	0	32800	
3792	0	32692	
3793	0	32800	
3794	0	32760	
3795	0	32780	
3796	0	32752	
3797	0	32758	
3798	0	32780	
3799	0	32776	
3800	0	32780	
3801	0	32832	
3802	0	32788	
3803	0	32790	
3804	0	32856	
3805	0	32764	
3806	0	32836	
3807	0	32732	
3808	0	32832	
3809	0	32876	
3810	0	32896	
3811	0	32884	
3812	0	32812	
3813	0	32692	
3814	0	32752	
3815	0	32768	
3816	0	32788	
3817	0	32832	
3818	0	32884	
3819	0	32900	
3820	0	32784	
3821	0	32808	
3822	0	32840	
3823	0	32820	
3824	0	32724	
3825	0	32764	
3826	0	32726	
3827	0	32856	
3828	0	32832	
3829	0	32814	
3830	0	32896	
3831	0	32834	
3832	0	32816	
3833	0	32672	
3834	0	32760	
3835	0	32792	
3836	0	32720	
3837	0	32636	
3838	0	32768	
3839	0	32802	
3840	0	32916	
3841	0	32828	
3842	0	32848	
3843	0	32872	
3844	0	32864	
3845	0	32944	
3846	0	32972	
3847	0	32792	
3848	0	32832	
3849	0	32826	
3850	0	32762	
3851	0	32800	
3852	0	32848	
3853	0	32720	
3854	0	32760	
3855	0	32680	
3856	0	32716	
3857	0	32708	
3858	0	32776	
3859	0	32844	
3860	0	32852	
3861	0	32852	
3862	0	32820	
3863	0	32812	
3864	0	32794	
3865	0	32880	
3866	0	32788	
3867	0	32740	
3868	0	32832	
3869	0	32844	
3870	0	32757	
3871	0	32832	
3872	0	32804	
3873	0	32856	
3874	0	32820	
3875	0	32740	
3876	0	32760	
3877	0	32740	
3878	0	32732	
3879	0	32848	
3880	0	32782	
3881	0	32796	
3882	0	32812	
3883	0	32864	
3884	0	32692	
3885	0	32808	
3886	0	32748	
3887	0	32764	
3888	0	32744	
3889	0	32812	
3890	0	32764	
3891	0	32868	
3892	0	32824	
3893	0	32810	
3894	0	32756	
3895	0	32768	
3896	0	32864	
3897	0	32788	
3898	0	32868	
3899	0	32856	
3900	0	32916	
3901	0	32868	
3902	0	32736	
3903	0	32864	
3904	0	32804	
3905	0	32796	
3906	0	32706	
3907	0	32756	
3908	0	32696	
3909	0	32804	
3910	0	32780	
3911	0	32852	
3912	0	32856	
3913	0	32800	
3914	0	32880	
3915	0	32856	
3916	0	32804	
3917	0	32808	
3918	0	32836	
3919	0	32820	
3920	0	32776	
3921	0	32676	
3922	0	32730	
3923	0	32840	
3924	0	32860	
3925	0	32656	
3926	0	32568	
3927	0	32748	
3928	0	32792	
3929	0	32760	
3930	0	32800	
3931	0	32765	
3932	0	32868	
3933	0	32756	
3934	0	32828	
3935	0	32780	
3936	0	32828	
3937	0	32892	
3938	0	32832	
3939	0	32784	
3940	0	32812	
3941	0	32800	
3942	0	32792	
3943	0	32804	
3944	0	32800	
3945	0	32844	
3946	0	32864	
3947	0	32880	
3948	0	32796	
3949	0	32888	
3950	0	32896	
3951	0	32814	
3952	0	32840	
3953	0	32768	
3954	0	32732	
3955	0	32780	
3956	0	32738	
3957	0	32804	
3958	0	32768	
3959	0	32776	
3960	0	32756	
3961	0	32742	
3962	0	32648	
3963	0	32768	
3964	0	32764	
3965	0	32784	
3966	0	32744	
3967	0	32824	
3968	0	32816	
3969	0	32788	
3970	0	32772	
3971	0	32856	
3972	0	32856	
3973	0	32848	
3974	0	32834	
3975	0	32784	
3976	0	32868	
3977	0	32800	
3978	0	32736	
3979	0	32756	
3980	0	32864	
3981	0	32856	
3982	0	32892	
3983	0	32848	
3984	0	32788	
3985	0	32800	
3986	0	32816	
3987	0	32802	
3988	0	32736	
3989	0	32808	
3990	0	32878	
3991	0	32812	
3992	0	32736	
3993	0	32772	
3994	0	32776	
3995	0	32816	
3996	0	32724	
3997	0	32820	
3998	0	32888	
3999	0	32880	
4000	0	32868	
4001	0	32776	
4002	0	32792	
4003	0	32756	
4004	0	32720	
4005	0	32804	
4006	0	32708	
4007	0	32732	
4008	0	32828	
4009	0	32832	
4010	0	32824	
4011	0	32932	
4012	0	32816	
4013	0	32772	
4014	0	32756	
4015	0	32824	
4016	0	32716	
4017	0	32704	
4018	0	32768	
4019	0	32812	
4020	0	32798	
4021	0	32748	
4022	0	32832	
4023	0	32776	
4024	0	32800	
4025	0	32748	
4026	0	32756	
4027	0	32836	
4028	0	32782	
4029	0	32732	
4030	0	32748	
4031	0	32836	
4032	0	32912	
4033	0	32844	
4034	0	32860	
4035	0	32916	
4036	0	32840	
4037	0	32872	
4038	0	32792	
4039	0	32764	
4040	0	32848	
4041	0	32928	
4042	0	32976	
4043	0	32826	
4044	0	32766	
4045	0	32750	
4046	0	32732	
4047	0	32692	
4048	0	32816	
4049	0	32922	
4050	0	32872	
4051	0	32852	
4052	0	32800	
4053	0	32688	
4054	0	32760	
4055	0	32840	
4056	0	32712	
4057	0	32788	
4058	0	32744	
4059	0	32776	
4060	0	32744	
4061	0	32768	
4062	0	32808	
4063	0	32896	
4064	0	32808	
4065	0	32840	
4066	0	32844	
4067	0	32784	
4068	0	32852	
4069	0	32920	
4070	0	32832	
4071	0	32836	
4072	0	32804	
4073	0	32828	
4074	0	32648	
4075	0	32701	
4076	0	32824	
4077	0	32824	
4078	0	32912	
4079	0	32802	
4080	0	32692	
4081	0	32736	
4082	0	32808	
4083	0	32724	
4084	0	32716	
4085	0	32828	
4086	0	32848	
4087	0	32816	
4088	0	32866	
4089	0	32772	
4090	0	32772	
4091	0	32800	
4092	0	32812	
4093	0	32780	
4094	0	32748	
4095	0	32808	
4096	0	32788	
4097	0	32616	
4098	0	32736	
4099	0	32790	
4100	0	32856	
4101	0	32828	
4102	0	32884	
4103	0	32888	
4104	0	32828	
4105	0	32888	
4106	0	32832	
4107	0	32812	
4108	0	32736	
4109	0	32684	
4110	0	32760	
4111	0	32768	
4112	0	32736	
4113	0	32740	
4114	0	32828	
4115	0	32868	
4116	0	32744	
4117	0	32826	
4118	0	32768	
4119	0	32804	
4120	0	32852	
4121	0	32792	
4122	0	32764	
4123	0	32848	
4124	0	32840	
4125	0	32862	
4126	0	32826	
4127	0	32796	
4128	0	32802	
4129	0	32824	
4130	0	32820	
4131	0	32852	
4132	0	32840	
4133	0	32832	
4134	0	32804	
4135	0	32728	
4136	0	32682	
4137	0	32768	
4138	0	32746	
4139	0	32840	
4140	0	32852	
4141	0	32905	
4142	0	32828	
4143	0	32762	
4144	0	32784	
4145	0	32820	
4146	0	32796	
4147	0	32804	
4148	0	32808	
4149	0	32800	
4150	0	32800	
4151	0	32756	
4152	0	32764	
4153	0	32848	
4154	0	32792	
4155	0	32836	
4156	0	32832	
4157	0	32744	
4158	0	32742	
4159	0	32828	
4160	0	32816	
4161	0	32876	
4162	0	32820	
4163	0	32810	
4164	0	32744	
4165	0	32864	
4166	0	32888	
4167	0	32924	
4168	0	32792	
4169	0	32866	
4170	0	32872	
4171	0	32736	
4172	0	32576	
4173	0	32608	
4174	0	32696	
4175	0	32780	
4176	0	32868	
4177	0	32836	
4178	0	32856	
4179	0	32876	
4180	0	32874	
4181	0	32916	
4182	0	32840	
4183	0	32900	
4184	0	32880	
4185	0	32828	
4186	0	32812	
4187	0	32676	
4188	0	32672	
4189	0	32820	
4190	0	32768	
4191	0	32816	
4192	0	32920	
4193	0	32872	
4194	0	32804	
4195	0	32742	
4196	0	32772	
4197	0	32752	
4198	0	32800	
4199	0	32824	
4200	0	32824	
4201	0	32776	
4202	0	32812	
4203	0	32820	
4204	0	32844	
4205	0	32777	
4206	0	32808	
4207	0	32824	
4208	0	32824	
4209	0	32840	
4210	0	32856	
4211	0	32844	
4212	0	32800	
4213	0	32790	
4214	0	32810	
4215	0	32762	
4216	0	32752	
4217	0	32740	
4218	0	32768	
4219	0	32816	
4220	0	32828	
4221	0	32808	
4222	0	32684	
4223	0	32816	
4224	0	32780	
4225	0	32868	
4226	0	32840	
4227	0	32808	
4228	0	32780	
4229	0	32800	
4230	0	32802	
4231	0	32764	
4232	0	32816	
4233	0	32800	
4234	0	32774	
4235	0	32810	
4236	0	32792	
4237	0	32797	
4238	0	32876	
4239	0	32800	
4240	0	32804	
4241	0	32828	
4242	0	32836	
4243	0	32770	
4244	0	32740	
4245	0	32792	
4246	0	32752	
4247	0	32904	
4248	0	32872	
4249	0	32876	
4250	0	32780	
4251	0	32788	
4252	0	32772	
4253	0	32748	
4254	0	32812	
4255	0	32849	
4256	0	32744	
4257	0	32704	
4258	0	32804	
4259	0	32828	
4260	0	32820	
4261	0	32788	
4262	0	32788	
4263	0	32800	
4264	0	32800	
4265	0	32804	
4266	0	32752	
4267	0	32628	
4268	0	32672	
4269	0	32684	
4270	0	32852	
4271	0	32886	
4272	0	32856	
4273	0	32892	
4274	0	32884	
4275	0	32828	
4276	0	32728	
4277	0	32844	
4278	0	32740	
4279	0	32794	
4280	0	32716	
4281	0	32932	
4282	0	32956	
4283	0	32808	
4284	0	32796	
4285	0	32756	
4286	0	32772	
4287	0	32716	
4288	0	32770	
4289	0	32880	
4290	0	32908	
4291	0	32876	
4292	0	32832	
4293	0	32792	
4294	0	32794	
4295	0	32832	
4296	0	32736	
4297	0	32708	
4298	0	32608	
4299	0	32709	
4300	0	32784	
4301	0	32784	
4302	0	32776	
4303	0	32876	
4304	0	32836	
4305	0	32852	
4306	0	32872	
4307	0	32820	
4308	0	32772	
4309	0	32652	
4310	0	32758	
4311	0	32804	
4312	0	32820	
4313	0	32804	
4314	0	32800	
4315	0	32948	
4316	0	32764	
4317	0	32832	
4318	0	32900	
4319	0	32800	
4320	0	32780	
4321	0	32842	
4322	0	32824	
4323	0	32796	
4324	0	32852	
4325	0	32758	
4326	0	32776	
4327	0	32792	
4328	0	32848	
4329	0	32768	
4330	0	32708	
4331	0	32736	
4332	0	32792	
4333	0	32796	
4334	0	32752	
4335	0	32896	
4336	0	32868	
4337	0	32866	
4338	0	32870	
4339	0	32824	
4340	0	32816	
4341	0	32836	
4342	0	32756	
4343	0	32780	
4344	0	32924	
4345	0	32788	
4346	0	32580	
4347	0	32632	
4348	0	32780	
4349	0	32836	
4350	0	32868	
4351	0	32880	
4352	0	32794	
4353	0	32828	
4354	0	32836	
4355	0	32848	
4356	0	32814	
4357	0	32800	
4358	0	32828	
4359	0	32832	
4360	0	32828	
4361	0	32828	
4362	0	32736	
4363	0	32818	
4364	0	32724	
4365	0	32740	
4366	0	32746	
4367	0	32760	
4368	0	32696	
4369	0	32804	
4370	0	32872	
4371	0	32772	
4372	0	32828	
4373	0	32832	
4374	0	32816	
4375	0	32802	
4376	0	32868	
4377	0	32804	
4378	0	32740	
4379	0	32804	
4380	0	32736	
4381	0	32796	
4382	0	32868	
4383	0	32900	
4384	0	32752	
4385	0	32684	
4386	0	32866	
4387	0	32748	
4388	0	32796	
4389	0	32716	
4390	0	32870	
4391	0	32812	
4392	0	32900	
4393	0	32800	
4394	0	32836	
4395	0	32784	
4396	0	32908	
4397	0	32844	
4398	0	32912	
4399	0	32884	
4400	0	32848	
4401	0	32760	
4402	0	32736	
4403	0	32764	
4404	0	32764	
4405	0	32772	
4406	0	32736	
4407	0	32796	
4408	0	32814	
4409	0	32816	
4410	0	32876	
4411	0	32880	
4412	0	32800	
4413	0	32774	
4414	0	32780	
4415	0	32704	
4416	0	32784	
4417	0	32784	
4418	0	32840	
4419	0	32800	
4420	0	32744	
4421	0	32824	
4422	0	32852	
4423	0	32697	
4424	0	32660	
4425	0	32698	
4426	0	32860	
4427	0	32956	
4428	0	32904	
4429	0	32836	
4430	0	32836	
4431	0	32824	
4432	0	32800	
4433	0	32836	
4434	0	32780	
4435	0	32796	
4436	0	32864	
4437	0	32744	
4438	0	32772	
4439	0	32764	
4440	0	32804	
4441	0	32816	
4442	0	32756	
4443	0	32804	
4444	0	32856	
4445	0	32932	
4446	0	32820	
4447	0	32724	
4448	0	32788	
4449	0	32732	
4450	0	32724	
4451	0	32815	
4452	0	32804	
4453	0	32826	
4454	0	32860	
4455	0	32892	
4456	0	32864	
4457	0	32784	
4458	0	32748	
4459	0	32775	
4460	0	32728	
4461	0	32780	
4462	0	32768	
4463	0	32880	
4464	0	32836	
4465	0	32840	
4466	0	32868	
4467	0	32764	
4468	0	32757	
4469	0	32736	
4470	0	32772	
4471	0	32746	
4472	0	32820	
4473	0	32768	
4474	0	32824	
4475	0	32788	
4476	0	32845	
4477	0	32828	
4478	0	32836	
4479	0	32832	
4480	0	32856	
4481	0	32892	
4482	0	32840	
4483	0	32782	
4484	0	32808	
4485	0	32788	
4486	0	32748	
4487	0	32808	
4488	0	32736	
4489	0	32776	
4490	0	32828	
4491	0	32828	
4492	0	32744	
4493	0	32872	
4494	0	32810	
4495	0	32736	
4496	0	32750	
4497	0	32704	
4498	0	32826	
4499	0	32866	
4500	0	32768	
4501	0	32804	
4502	0	32836	
4503	0	32796	
4504	0	32820	
4505	0	32852	
4506	0	32832	
4507	0	32758	
4508	0	32760	
4509	0	32820	
4510	0	32812	
4511	0	32792	
4512	0	32884	
4513	0	32824	
4514	0	32816	
4515	0	32828	
4516	0	32752	
4517	0	32800	
4518	0	32752	
4519	0	32896	
4520	0	32826	
4521	0	32844	
4522	0	32892	
4523	0	32832	
4524	0	32725	
4525	0	32784	
4526	0	32824	
4527	0	32832	
4528	0	32716	
4529	0	32732	
4530	0	32766	
4531	0	32852	
4532	0	32876	
4533	0	32828	
4534	0	32860	
4535	0	32780	
4536	0	32740	
4537	0	32708	
4538	0	32808	
4539	0	32826	
4540	0	32804	
4541	0	32840	
4542	0	32810	
4543	0	32794	
4544	0	32768	
4545	0	32692	
4546	0	32788	
4547	0	32818	
4548	0	32864	
4549	0	32848	
4550	0	32884	
4551	0	32778	
4552	0	32760	
4553	0	32820	
4554	0	32796	
4555	0	32750	
4556	0	32696	
4557	0	32840	
4558	0	32816	
4559	0	32832	
4560	0	32752	
4561	0	32748	
4562	0	32808	
4563	0	32808	
4564	0	32804	
4565	0	32752	
4566	0	32820	
4567	0	32778	
4568	0	32820	
4569	0	32860	
4570	0	32924	
4571	0	32816	
4572	0	32804	
4573	0	32834	
4574	0	32732	
4575	0	32680	
4576	0	32752	
4577	0	32796	
4578	0	32940	
4579	0	32892	
4580	0	32880	
4581	0	32852	
4582	0	32928	
4583	0	32844	
4584	0	32814	
4585	0	32860	
4586	0	32720	
4587	0	32632	
4588	0	32772	
4589	0	32736	
4590	0	32804	
4591	0	32748	
4592	0	32792	
4593	0	32840	
4594	0	32788	
4595	0	32764	
4596	0	32756	
4597	0	32768	
4598	0	32804	
4599	0	32868	
4600	0	32820	
4601	0	32772	
4602	0	32924	
4603	0	32816	
4604	0	32820	
4605	0	32824	
4606	0	32908	
4607	0	32800	
4608	0	32826	
4609	0	32712	
4610	0	32816	
4611	0	32780	
4612	0	32752	
4613	0	32760	
4614	0	32775	
4615	0	32864	
4616	0	32888	
4617	0	32764	
4618	0	32832	
4619	0	32784	
4620	0	32744	
4621	0	32700	
4622	0	32752	
4623	0	32760	
4624	0	32884	
4625	0	32818	
4626	0	32814	
4627	0	32824	
4628	0	32824	
4629	0	32852	
4630	0	32856	
4631	0	32764	
4632	0	32852	
4633	0	32808	
4634	0	32788	
4635	0	32800	
4636	0	32792	
4637	0	32724	
4638	0	32696	
4639	0	32736	
4640	0	32792	
4641	0	32888	
4642	0	32852	
4643	0	32796	
4644	0	32748	
4645	0	32752	
4646	0	32788	
4647	0	32800	
4648	0	32936	
4649	0	32902	
4650	0	32868	
4651	0	32692	
4652	0	32676	
4653	0	32732	
4654	0	32816	
4655	0	32820	
4656	0	32842	
4657	0	32884	
4658	0	32888	
4659	0	32660	
4660	0	32744	
4661	0	32780	
4662	0	32972	
4663	0	32804	
4664	0	32688	
4665	0	32768	
4666	0	32900	
4667	0	32960	
4668	0	32900	
4669	0	32836	
4670	0	32840	
4671	0	32828	
4672	0	32732	
4673	0	32724	
4674	0	32698	
4675	0	32774	
4676	0	32832	
4677	0	32906	
4678	0	32816	
4679	0	32806	
4680	0	32716	
4681	0	32684	
4682	0	32712	
4683	0	32776	
4684	0	32836	
4685	0	32868	
4686	0	32840	
4687	0	32892	
4688	0	32888	
4689	0	32784	
4690	0	32850	
4691	0	32842	
4692	0	32816	
4693	0	32738	
4694	0	32818	
4695	0	32748	
4696	0	32824	
4697	0	32720	
4698	0	32816	
4699	0	32878	
4700	0	32856	
4701	0	32840	
4702	0	32772	
4703	0	32768	
4704	0	32808	
4705	0	32704	
4706	0	32800	
4707	0	32704	
4708	0	32802	
4709	0	32720	
4710	0	32840	
4711	0	32860	
4712	0	32856	
4713	0	32792	
4714	0	32820	
4715	0	32812	
4716	0	32814	
4717	0	32732	
4718	0	32764	
4719	0	32872	
4720	0	32918	
4721	0	32936	
4722	0	32872	
4723	0	32784	
4724	0	32812	
4725	0	32748	
4726	0	32752	
4727	0	32692	
4728	0	32700	
4729	0	32756	
4730	0	32952	
4731	0	32972	
4732	0	32956	
4733	0	32824	
4734	0	32800	
4735	0	32744	
4736	0	32664	
4737	0	32676	
4738	0	32760	
4739	0	32816	
4740	0	32884	
4741	0	32954	
4742	0	32876	
4743	0	32800	
4744	0	32752	
4745	0	32784	
4746	0	32776	
4747	0	32788	
4748	0	32816	
4749	0	32800	
4750	0	32784	
4751	0	32784	
4752	0	32816	
4753	0	32784	
4754	0	32856	
4755	0	32812	
4756	0	32860	
4757	0	32768	
4758	0	32824	
4759	0	32832	
4760	0	32812	
4761	0	32768	
4762	0	32868	
4763	0	32812	
4764	0	32840	
4765	0	32828	
4766	0	32824	
4767	0	32808	
4768	0	32872	
4769	0	32736	
4770	0	32752	
4771	0	32768	
4772	0	32688	
4773	0	32724	
4774	0	32804	
4775	0	32796	
4776	0	32812	
4777	0	32840	
4778	0	32896	
4779	0	32884	
4780	0	32900	
4781	0	32944	
4782	0	32910	
4783	0	32834	
4784	0	32904	
4785	0	32836	
4786	0	32752	
4787	0	32772	
4788	0	32760	
4789	0	32800	
4790	0	32732	
4791	0	32740	
4792	0	32768	
4793	0	32726	
4794	0	32676	
4795	0	32820	
4796	0	32800	
4797	0	32700	
4798	0	32788	
4799	0	32780	
4800	0	32764	
4801	0	32824	
4802	0	32820	
4803	0	32824	
4804	0	32884	
4805	0	32780	
4806	0	32852	
4807	0	32748	
4808	0	32860	
4809	0	32852	
4810	0	32828	
4811	0	32820	
4812	0	32808	
4813	0	32928	
4814	0	32828	
4815	0	32864	
4816	0	32828	
4817	0	32820	
4818	0	32856	
4819	0	32824	
4820	0	32816	
4821	0	32708	
4822	0	32768	
4823	0	32840	
4824	0	32754	
4825	0	32804	
4826	0	32788	
4827	0	32800	
4828	0	32768	
4829	0	32708	
4830	0	32776	
4831	0	32868	
4832	0	32904	
4833	0	32912	
4834	0	32804	
4835	0	32764	
4836	0	32784	
4837	0	32760	
4838	0	32804	
4839	0	32800	
4840	0	32832	
4841	0	32710	
4842	0	32736	
4843	0	32774	
4844	0	32800	
4845	0	32856	
4846	0	32868	
4847	0	32862	
4848	0	32846	
4849	0	32892	
4850	0	32922	
4851	0	32856	
4852	0	32828	
4853	0	32728	
4854	0	32656	
4855	0	32748	
4856	0	32832	
4857	0	32936	
4858	0	32916	
4859	0	32824	
4860	0	32780	
4861	0	32736	
4862	0	32728	
4863	0	32792	
4864	0	32848	
4865	0	32856	
4866	0	32760	
4867	0	32696	
4868	0	32776	
4869	0	32796	
4870	0	32724	
4871	0	32748	
4872	0	32796	
4873	0	32768	
4874	0	32822	
4875	0	32790	
4876	0	32816	
4877	0	32816	
4878	0	32704	
4879	0	32684	
4880	0	32720	
4881	0	32760	
4882	0	32772	
4883	0	32796	
4884	0	32964	
4885	0	32920	
4886	0	32876	
4887	0	32960	
4888	0	32912	
4889	0	32888	
4890	0	32844	
4891	0	32797	
4892	0	32796	
4893	0	32780	
4894	0	32800	
4895	0	32840	
4896	0	32816	
4897	0	32756	
4898	0	32824	
4899	0	32824	
4900	0	32836	
4901	0	32788	
4902	0	32736	
4903	0	32720	
4904	0	32740	
4905	0	32776	
4906	0	32828	
4907	0	32872	
4908	0	32916	
4909	0	32848	
4910	0	32794	
4911	0	32888	
4912	0	32836	
4913	0	32792	
4914	0	32724	
4915	0	32690	
4916	0	32692	
4917	0	32792	
4918	0	32846	
4919	0	32868	
4920	0	32840	
4921	0	32686	
4922	0	32668	
4923	0	32684	
4924	0	32852	
4925	0	32956	
4926	0	32844	
4927	0	32928	
4928	0	32766	
4929	0	32852	
4930	0	32716	
4931	0	32604	
4932	0	32572	
4933	0	32684	
4934	0	32760	
4935	0	32796	
4936	0	32888	
4937	0	32884	
4938	0	32820	
4939	0	32920	
4940	0	32900	
4941	0	32820	
4942	0	33012	
4943	0	33048	
4944	0	33116	
4945	0	33092	
4946	0	32940	
4947	0	32800	
4948	0	32700	
4949	0	32752	
4950	0	32724	
4951	0	32672	
4952	0	32700	
4953	0	32656	
4954	0	32496	
4955	0	32570	
4956	0	32606	
4957	0	32680	
4958	0	32784	
4959	0	32844	
4960	0	32832	
4961	0	32762	
4962	0	32744	
4963	0	32752	
4964	0	32872	
4965	0	32996	
4966	0	33116	
4967	0	33020	
4968	0	32812	
4969	0	32728	
4970	0	32766	
4971	0	32748	
4972	0	32808	
4973	0	32624	
4974	0	32608	
4975	0	32610	
4976	0	32824	
4977	0	32900	
4978	0	33088	
4979	0	33060	
4980	0	33020	
4981	0	32988	
4982	0	32912	
4983	0	32732	
4984	0	32765	
4985	0	32736	
4986	0	32714	
4987	0	32596	
4988	0	32594	
4989	0	32616	
4990	0	32334	
4991	0	32444	
4992	0	32572	
4993	0	32664	
4994	0	32752	
4995	0	33000	
4996	0	33290	
4997	0	33620	
4998	0	33732	
4999	0	33688	
5000	0	33168	
5001	0	32644	
5002	0	32216	
5003	0	32116	
5004	0	32300	
5005	0	32444	
5006	0	32704	
5007	0	32832	
5008	0	32790	
5009	0	32836	
5010	0	33016	
5011	0	33018	
5012	0	33066	
5013	0	32940	
5014	0	32908	
5015	0	32772	
5016	0	32744	
5017	0	32720	
5018	0	32688	
5019	0	32708	
5020	0	32656	
5021	0	32764	
5022	0	32776	
5023	0	32812	
5024	0	32788	
5025	0	32784	
5026	0	32844	
5027	0	32808	
5028	0	32860	
5029	0	32772	
5030	0	32768	
5031	0	32728	
5032	0	32736	
5033	0	32606	
5034	0	32688	
5035	0	32696	
5036	0	32718	
5037	0	32640	
5038	0	32624	
5039	0	32636	
5040	0	32588	
5041	0	32604	
5042	0	32800	
5043	0	33060	
5044	0	33224	
5045	0	33304	
5046	0	32828	
5047	0	32729	
5048	0	32832	
5049	0	32860	
5050	0	32864	
5051	0	32828	
5052	0	32728	
5053	0	32820	
5054	0	32868	
5055	0	33076	
5056	0	33220	
5057	0	33116	
5058	0	32956	
5059	0	32770	
5060	0	32544	
5061	0	32562	
5062	0	32632	
5063	0	32568	
5064	0	32720	
5065	0	32704	
5066	0	32588	
5067	0	32708	
5068	0	32700	
5069	0	32720	
5070	0	32832	
5071	0	32862	
5072	0	32972	
5073	0	32856	
5074	0	32764	
5075	0	33016	
5076	0	33182	
5077	0	33132	
5078	0	33012	
5079	0	32936	
5080	0	32792	
5081	0	32736	
5082	0	32644	
5083	0	32784	
5084	0	32556	
5085	0	32596	
5086	0	32720	
5087	0	32812	
5088	0	32852	
5089	0	32760	
5090	0	32726	
5091	0	32768	
5092	0	32800	
5093	0	32820	
5094	0	32928	
5095	0	32892	
5096	0	32992	
5097	0	32964	
5098	0	32736	
5099	0	32660	
5100	0	32552	
5101	0	32484	
5102	0	32524	
5103	0	32528	
5104	0	32732	
5105	0	33084	
5106	0	33012	
5107	0	32772	
5108	0	32804	
5109	0	32836	
5110	0	32788	
5111	0	32692	
5112	0	32664	
5113	0	32712	
5114	0	32720	
5115	0	32944	
5116	0	33152	
5117	0	33432	
5118	0	33468	
5119	0	33280	
5120	0	32986	
5121	0	32720	
5122	0	32760	
5123	0	32784	
5124	0	32704	
5125	0	32664	
5126	0	32680	
5127	0	32716	
5128	0	32820	
5129	0	32774	
5130	0	32748	
5131	0	32732	
5132	0	32552	
5133	0	32218	
5134	0	32280	
5135	0	32472	
5136	0	32640	
5137	0	32912	
5138	0	32920	
5139	0	32742	
5140	0	32748	
5141	0	33088	
5142	0	33332	
5143	0	33304	
5144	0	32904	
5145	0	32736	
5146	0	32688	
5147	0	32752	
5148	0	32752	
5149	0	32984	
5150	0	33280	
5151	0	33196	
5152	0	33120	
5153	0	32704	
5154	0	32656	
5155	0	32824	
5156	0	32780	
5157	0	32856	
5158	0	32800	
5159	0	32724	
5160	0	32684	
5161	0	32536	
5162	0	32452	
5163	0	32396	
5164	0	32640	
5165	0	32680	
5166	0	32736	
5167	0	32672	
5168	0	32704	
5169	0	32728	
5170	0	32744	
5171	0	32964	
5172	0	33184	
5173	0	32956	
5174	0	32688	
5175	0	32666	
5176	0	32744	
5177	0	32876	
5178	0	33144	
5179	0	33528	
5180	0	33176	
5181	0	32820	
5182	0	32460	
5183	0	32536	
5184	0	32620	
5185	0	32756	
5186	0	33006	
5187	0	32852	
5188	0	32816	
5189	0	33028	
5190	0	33044	
5191	0	32976	
5192	0	32836	
5193	0	32737	
5194	0	32334	
5195	0	32388	
5196	0	32684	
5197	0	32800	
5198	0	32888	
5199	0	32782	
5200	0	32544	
5201	0	32634	
5202	0	32540	
5203	0	32560	
5204	0	32664	
5205	0	32768	
5206	0	32836	
5207	0	32752	
5208	0	32752	
5209	0	32984	
5210	0	33148	
5211	0	33132	
5212	0	33112	
5213	0	33160	
5214	0	33284	
5215	0	33424	
5216	0	33048	
5217	0	32688	
5218	0	32460	
5219	0	32512	
5220	0	32576	
5221	0	32584	
5222	0	32768	
5223	0	32820	
5224	0	32932	
5225	0	32840	
5226	0	32576	
5227	0	32552	
5228	0	32578	
5229	0	32730	
5230	0	32809	
5231	0	32808	
5232	0	32708	
5233	0	32644	
5234	0	32853	
5235	0	32936	
5236	0	32900	
5237	0	32808	
5238	0	32888	
5239	0	32940	
5240	0	32842	
5241	0	32632	
5242	0	32728	
5243	0	32778	
5244	0	32868	
5245	0	32934	
5246	0	32852	
5247	0	32896	
5248	0	32952	
5249	0	32922	
5250	0	32900	
5251	0	33008	
5252	0	32768	
5253	0	32592	
5254	0	32641	
5255	0	32452	
5256	0	32488	
5257	0	32544	
5258	0	32772	
5259	0	33008	
5260	0	33212	
5261	0	32940	
5262	0	32804	
5263	0	32728	
5264	0	32712	
5265	0	32648	
5266	0	32504	
5267	0	32538	
5268	0	32648	
5269	0	32832	
5270	0	32888	
5271	0	32828	
5272	0	33032	
5273	0	33072	
5274	0	33064	
5275	0	33128	
5276	0	32952	
5277	0	32716	
5278	0	32616	
5279	0	32636	
5280	0	32656	
5281	0	32722	
5282	0	32784	
5283	0	33020	
5284	0	32984	
5285	0	32948	
5286	0	32828	
5287	0	32904	
5288	0	33112	
5289	0	32964	
5290	0	32916	
5291	0	32968	
5292	0	33008	
5293	0	32698	
5294	0	32568	
5295	0	32504	
5296	0	32368	
5297	0	32308	
5298	0	32452	
5299	0	32568	
5300	0	32748	
5301	0	32776	
5302	0	32848	
5303	0	32824	
5304	0	32812	
5305	0	32900	
5306	0	32992	
5307	0	33034	
5308	0	33268	
5309	0	33257	
5310	0	33084	
5311	0	33012	
5312	0	32762	
5313	0	32616	
5314	0	32592	
5315	0	32612	
5316	0	32652	
5317	0	32600	
5318	0	32460	
5319	0	32420	
5320	0	32448	
5321	0	32628	
5322	0	32674	
5323	0	32672	
5324	0	32584	
5325	0	32604	
5326	0	32620	
5327	0	32764	
5328	0	32814	
5329	0	33021	
5330	0	33216	
5331	0	33248	
5332	0	33440	
5333	0	33632	
5334	0	33884	
5335	0	33736	
5336	0	33668	
5337	0	32960	
5338	0	32512	
5339	0	32244	
5340	0	32240	
5341	0	32268	
5342	0	32476	
5343	0	32544	
5344	0	32684	
5345	0	32692	
5346	0	32432	
5347	0	32216	
5348	0	32374	
5349	0	32658	
5350	0	32760	
5351	0	32740	
5352	0	32636	
5353	0	32740	
5354	0	32852	
5355	0	32832	
5356	0	32792	
5357	0	32888	
5358	0	32976	
5359	0	32892	
5360	0	32928	
5361	0	33096	
5362	0	33210	
5363	0	33476	
5364	0	33444	
5365	0	33018	
5366	0	32540	
5367	0	32298	
5368	0	32328	
5369	0	32450	
5370	0	32444	
5371	0	32388	
5372	0	32516	
5373	0	32776	
5374	0	32928	
5375	0	32812	
5376	0	32776	
5377	0	32888	
5378	0	32852	
5379	0	32896	
5380	0	33180	
5381	0	33228	
5382	0	33344	
5383	0	33116	
5384	0	32780	
5385	0	32632	
5386	0	32750	
5387	0	33008	
5388	0	33056	
5389	0	32976	
5390	0	32732	
5391	0	32648	
5392	0	32656	
5393	0	32512	
5394	0	32356	
5395	0	32640	
5396	0	32886	
5397	0	33108	
5398	0	33240	
5399	0	33016	
5400	0	32604	
5401	0	32482	
5402	0	32468	
5403	0	32728	
5404	0	33264	
5405	0	33108	
5406	0	32788	
5407	0	32472	
5408	0	32352	
5409	0	32500	
5410	0	32628	
5411	0	32736	
5412	0	32800	
5413	0	32976	
5414	0	32984	
5415	0	32896	
5416	0	32862	
5417	0	32744	
5418	0	32880	
5419	0	33002	
5420	0	33244	
5421	0	33456	
5422	0	33152	
5423	0	32808	
5424	0	32572	
5425	0	32528	
5426	0	32544	
5427	0	32656	
5428	0	32780	
5429	0	32788	
5430	0	32728	
5431	0	32652	
5432	0	32676	
5433	0	32696	
5434	0	32720	
5435	0	32740	
5436	0	32708	
5437	0	32812	
5438	0	33032	
5439	0	33064	
5440	0	32888	
5441	0	32748	
5442	0	32928	
5443	0	32618	
5444	0	32564	
5445	0	32800	
5446	0	32708	
5447	0	32576	
5448	0	32512	
5449	0	32776	
5450	0	33004	
5451	0	33432	
5452	0	33340	
5453	0	32944	
5454	0	32614	
5455	0	32562	
5456	0	32704	
5457	0	32666	
5458	0	32704	
5459	0	32688	
5460	0	32888	
5461	0	32944	
5462	0	32988	
5463	0	32904	
5464	0	32764	
5465	0	32704	
5466	0	32452	
5467	0	32420	
5468	0	32780	
5469	0	33084	
5470	0	33120	
5471	0	33224	
5472	0	32986	
5473	0	32712	
5474	0	32572	
5475	0	32532	
5476	0	32808	
5477	0	33092	
5478	0	33080	
5479	0	32996	
5480	0	32744	
5481	0	32692	
5482	0	32672	
5483	0	32512	
5484	0	32452	
5485	0	32588	
5486	0	32724	
5487	0	32842	
5488	0	32852	
5489	0	32678	
5490	0	32692	
5491	0	32656	
5492	0	32756	
5493	0	32744	
5494	0	32744	
5495	0	32720	
5496	0	33108	
5497	0	33440	
5498	0	33416	
5499	0	33124	
5500	0	32860	
5501	0	32724	
5502	0	32828	
5503	0	32956	
5504	0	32764	
5505	0	32688	
5506	0	32476	
5507	0	32704	
5508	0	32860	
5509	0	32814	
5510	0	32610	
5511	0	32566	
5512	0	32828	
5513	0	32752	
5514	0	32776	
5515	0	32760	
5516	0	32588	
5517	0	32496	
5518	0	32632	
5519	0	32756	
5520	0	32876	
5521	0	33184	
5522	0	33344	
5523	0	33338	
5524	0	32976	
5525	0	32520	
5526	0	32556	
5527	0	32530	
5528	0	32372	
5529	0	32180	
5530	0	32508	
5531	0	32758	
5532	0	33064	
5533	0	33180	
5534	0	33152	
5535	0	32916	
5536	0	32852	
5537	0	32804	
5538	0	33080	
5539	0	33328	
5540	0	33488	
5541	0	33288	
5542	0	32556	
5543	0	32372	
5544	0	32388	
5545	0	32296	
5546	0	32248	
5547	0	32322	
5548	0	32544	
5549	0	32752	
5550	0	32906	
5551	0	33056	
5552	0	32960	
5553	0	32784	
5554	0	32840	
5555	0	32754	
5556	0	32784	
5557	0	32932	
5558	0	33088	
5559	0	33240	
5560	0	33354	
5561	0	33168	
5562	0	32876	
5563	0	32620	
5564	0	32520	
5565	0	32528	
5566	0	32442	
5567	0	32328	
5568	0	32424	
5569	0	32452	
5570	0	32688	
5571	0	33156	
5572	0	33164	
5573	0	33344	
5574	0	33396	
5575	0	33040	
5576	0	32680	
5577	0	32536	
5578	0	32648	
5579	0	32544	
5580	0	32640	
5581	0	32748	
5582	0	32552	
5583	0	32452	
5584	0	32688	
5585	0	32812	
5586	0	32874	
5587	0	32888	
5588	0	32940	
5589	0	32844	
5590	0	32640	
5591	0	32736	
5592	0	32864	
5593	0	32728	
5594	0	32784	
5595	0	32994	
5596	0	32928	
5597	0	33092	
5598	0	32992	
5599	0	32780	
5600	0	32868	
5601	0	33036	
5602	0	32936	
5603	0	33024	
5604	0	33096	
5605	0	32988	
5606	0	32682	
5607	0	32400	
5608	0	32448	
5609	0	32576	
5610	0	32950	
5611	0	32992	
5612	0	32876	
5613	0	32672	
5614	0	32624	
5615	0	32596	
5616	0	32760	
5617	0	32800	
5618	0	32764	
5619	0	32656	
5620	0	32696	
5621	0	32756	
5622	0	32484	
5623	0	32528	
5624	0	32592	
5625	0	32688	
5626	0	32620	
5627	0	32532	
5628	0	32616	
5629	0	32856	
5630	0	33188	
5631	0	33124	
5632	0	32996	
5633	0	32736	
5634	0	32868	
5635	0	33012	
5636	0	32916	
5637	0	32936	
5638	0	32936	
5639	0	33276	
5640	0	33560	
5641	0	33564	
5642	0	33336	
5643	0	33044	
5644	0	32552	
5645	0	32356	
5646	0	32264	
5647	0	32180	
5648	0	32092	
5649	0	32292	
5650	0	32600	
5651	0	32860	
5652	0	32904	
5653	0	32696	
5654	0	32564	
5655	0	32848	
5656	0	32960	
5657	0	32982	
5658	0	33088	
5659	0	32952	
5660	0	32800	
5661	0	32748	
5662	0	32920	
5663	0	32936	
5664	0	32728	
5665	0	32628	
5666	0	32504	
5667	0	32814	
5668	0	32888	
5669	0	32842	
5670	0	32612	
5671	0	32608	
5672	0	32724	
5673	0	32868	
5674	0	32956	
5675	0	32972	
5676	0	32804	
5677	0	32660	
5678	0	32652	
5679	0	32800	
5680	0	32896	
5681	0	33216	
5682	0	33292	
5683	0	32876	
5684	0	32408	
5685	0	32420	
5686	0	32576	
5687	0	32740	
5688	0	32788	
5689	0	32842	
5690	0	32888	
5691	0	32956	
5692	0	33060	
5693	0	33148	
5694	0	33376	
5695	0	33180	
5696	0	32640	
5697	0	32156	
5698	0	32350	
5699	0	32536	
5700	0	32548	
5701	0	32464	
5702	0	32520	
5703	0	32548	
5704	0	32824	
5705	0	32906	
5706	0	32904	
5707	0	32932	
5708	0	33160	
5709	0	33234	
5710	0	33028	
5711	0	32964	
5712	0	32825	
5713	0	32732	
5714	0	32566	
5715	0	32608	
5716	0	32672	
5717	0	32860	
5718	0	33016	
5719	0	32900	
5720	0	32896	
5721	0	32768	
5722	0	32732	
5723	0	32760	
5724	0	32884	
5725	0	32714	
5726	0	32536	
5727	0	32516	
5728	0	32956	
5729	0	33100	
5730	0	33088	
5731	0	33060	
5732	0	32812	
5733	0	33008	
5734	0	32892	
5735	0	32612	
5736	0	32260	
5737	0	32396	
5738	0	32656	
5739	0	32848	
5740	0	32780	
5741	0	32788	
5742	0	32940	
5743	0	32740	
5744	0	32692	
5745	0	32756	
5746	0	32616	
5747	0	32736	
5748	0	32888	
5749	0	33592	
5750	0	33768	
5751	0	33220	
5752	0	32772	
5753	0	32628	
5754	0	32444	
5755	0	32504	
5756	0	32864	
5757	0	33044	
5758	0	33024	
5759	0	32732	
5760	0	32708	
5761	0	32720	
5762	0	32724	
5763	0	32812	
5764	0	32708	
5765	0	32644	
5766	0	32644	
5767	0	32532	
5768	0	32564	
5769	0	32688	
5770	0	32816	
5771	0	32680	
5772	0	32568	
5773	0	32662	
5774	0	32828	
5775	0	32978	
5776	0	32960	
5777	0	32940	
5778	0	33076	
5779	0	32954	
5780	0	32846	
5781	0	32640	
5782	0	32468	
5783	0	32380	
5784	0	32932	
5785	0	33216	
5786	0	33252	
5787	0	33016	
5788	0	32892	
5789	0	32660	
5790	0	32672	
5791	0	33064	
5792	0	33304	
5793	0	32976	
5794	0	32560	
5795	0	32418	
5796	0	32360	
5797	0	32602	
5798	0	32676	
5799	0	32800	
5800	0	32640	
5801	0	32700	
5802	0	32516	
5803	0	32456	
5804	0	32932	
5805	0	33452	
5806	0	33556	
5807	0	33568	
5808	0	33620	
5809	0	33056	
5810	0	32396	
5811	0	32196	
5812	0	32388	
5813	0	32570	
5814	0	32636	
5815	0	32576	
5816	0	32544	
5817	0	32444	
5818	0	32600	
5819	0	32848	
5820	0	32984	
5821	0	33092	
5822	0	32948	
5823	0	32920	
5824	0	32748	
5825	0	32752	
5826	0	32730	
5827	0	32934	
5828	0	32924	
5829	0	32648	
5830	0	32544	
5831	0	32584	
5832	0	32828	
5833	0	33156	
5834	0	33152	
5835	0	32840	
5836	0	32732	
5837	0	32529	
5838	0	32460	
5839	0	32805	
5840	0	32970	
5841	0	32992	
5842	0	32908	
5843	0	32752	
5844	0	32772	
5845	0	32644	
5846	0	32544	
5847	0	32864	
5848	0	33180	
5849	0	32952	
5850	0	32904	
5851	0	32848	
5852	0	33128	
5853	0	32976	
5854	0	33048	
5855	0	32741	
5856	0	32524	
5857	0	32474	
5858	0	32516	
5859	0	32532	
5860	0	32772	
5861	0	33034	
5862	0	33356	
5863	0	33200	
5864	0	32812	
5865	0	32474	
5866	0	32440	
5867	0	32466	
5868	0	32648	
5869	0	32704	
5870	0	32960	
5871	0	32948	
5872	0	32796	
5873	0	32528	
5874	0	32608	
5875	0	32820	
5876	0	33176	
5877	0	33290	
5878	0	33048	
5879	0	33072	
5880	0	32992	
5881	0	32732	
5882	0	32656	
5883	0	32600	
5884	0	32560	
5885	0	32460	
5886	0	32564	
5887	0	32628	
5888	0	32696	
5889	0	32660	
5890	0	32832	
5891	0	32760	
5892	0	32852	
5893	0	32936	
5894	0	32920	
5895	0	33084	
5896	0	33476	
5897	0	33172	
5898	0	32988	
5899	0	32848	
5900	0	32760	
5901	0	32600	
5902	0	32576	
5903	0	32516	
5904	0	32448	
5905	0	32568	
5906	0	32610	
5907	0	32608	
5908	0	32776	
5909	0	32876	
5910	0	32984	
5911	0	33220	
5912	0	33312	
5913	0	32812	
5914	0	32572	
5915	0	32624	
5916	0	32688	
5917	0	32736	
5918	0	32708	
5919	0	32816	
5920	0	32958	
5921	0	32664	
5922	0	32450	
5923	0	32796	
5924	0	33298	
5925	0	33396	
5926	0	33044	
5927	0	32924	
5928	0	32876	
5929	0	32888	
5930	0	32618	
5931	0	32460	
5932	0	32580	
5933	0	32708	
5934	0	32812	
5935	0	32812	
5936	0	32704	
5937	0	32624	
5938	0	32844	
5939	0	33044	
5940	0	32756	
5941	0	32680	
5942	0	32780	
5943	0	32820	
5944	0	32576	
5945	0	32484	
5946	0	32636	
5947	0	32832	
5948	0	33276	
5949	0	33600	
5950	0	33260	
5951	0	32852	
5952	0	32584	
5953	0	32506	
5954	0	32596	
5955	0	32860	
5956	0	32920	
5957	0	32816	
5958	0	32660	
5959	0	32530	
5960	0	32712	
5961	0	32772	
5962	0	32752	
5963	0	32676	
5964	0	32724	
5965	0	32712	
5966	0	32864	
5967	0	33016	
5968	0	33018	
5969	0	32900	
5970	0	32628	
5971	0	32512	
5972	0	32520	
5973	0	32416	
5974	0	32408	
5975	0	32560	
5976	0	32892	
5977	0	33096	
5978	0	33028	
5979	0	32948	
5980	0	32884	
5981	0	32928	
5982	0	32830	
5983	0	32724	
5984	0	32844	
5985	0	32968	
5986	0	32928	
5987	0	33052	
5988	0	33312	
5989	0	33080	
5990	0	33036	
5991	0	32900	
5992	0	32692	
5993	0	32776	
5994	0	32728	
5995	0	32566	
5996	0	32552	
5997	0	32536	
5998	0	32736	
5999	0	32928	
6000	0	32920	
6001	0	33208	
6002	0	33048	
6003	0	32848	
6004	0	32862	
6005	0	32572	
6006	0	32188	
6007	0	31936	
6008	0	32076	
6009	0	32512	
6010	0	32932	
6011	0	32872	
6012	0	33120	
6013	0	32986	
6014	0	32892	
6015	0	33096	
6016	0	33164	
6017	0	33232	
6018	0	33688	
6019	0	33784	
6020	0	33132	
6021	0	32532	
6022	0	32152	
6023	0	31984	
6024	0	32404	
6025	0	32708	
6026	0	32672	
6027	0	32564	
6028	0	32656	
6029	0	32792	
6030	0	32940	
6031	0	33296	
6032	0	33416	
6033	0	33378	
6034	0	32956	
6035	0	32536	
6036	0	32348	
6037	0	32244	
6038	0	32456	
6039	0	32314	
6040	0	32244	
6041	0	32756	
6042	0	33028	
6043	0	32990	
6044	0	33048	
6045	0	32828	
6046	0	32752	
6047	0	32948	
6048	0	32808	
6049	0	32584	
6050	0	32536	
6051	0	32504	
6052	0	32554	
6053	0	32680	
6054	0	32828	
6055	0	33188	
6056	0	33548	
6057	0	33704	
6058	0	33010	
6059	0	32672	
6060	0	32672	
6061	0	32768	
6062	0	32944	
6063	0	33040	
6064	0	32898	
6065	0	33100	
6066	0	32956	
6067	0	32826	
6068	0	32788	
6069	0	32792	
6070	0	32676	
6071	0	32832	
6072	0	32732	
6073	0	32677	
6074	0	32624	
6075	0	32600	
6076	0	32580	
6077	0	32852	
6078	0	32860	
6079	0	32872	
6080	0	32992	
6081	0	33016	
6082	0	32840	
6083	0	32628	
6084	0	32580	
6085	0	32692	
6086	0	32608	
6087	0	32544	
6088	0	32576	
6089	0	32620	
6090	0	32644	
6091	0	32692	
6092	0	32608	
6093	0	32536	
6094	0	32824	
6095	0	33196	
6096	0	33116	
6097	0	33000	
6098	0	32880	
6099	0	32766	
6100	0	32752	
6101	0	32858	
6102	0	32892	
6103	0	32881	
6104	0	32752	
6105	0	32804	
6106	0	32924	
6107	0	32960	
6108	0	32872	
6109	0	32604	
6110	0	32636	
6111	0	32672	
6112	0	32812	
6113	0	32876	
6114	0	32944	
6115	0	32808	
6116	0	32608	
6117	0	32724	
6118	0	32916	
6119	0	32888	
6120	0	32936	
6121	0	32820	
6122	0	32644	
6123	0	32460	
6124	0	32572	
6125	0	32932	
6126	0	33146	
6127	0	33080	
6128	0	33072	
6129	0	32852	
6130	0	32988	
6131	0	32996	
6132	0	32800	
6133	0	32806	
6134	0	33048	
6135	0	32972	
6136	0	32748	
6137	0	32789	
6138	0	32794	
6139	0	32680	
6140	0	32528	
6141	0	32540	
6142	0	32596	
6143	0	32752	
6144	0	32904	
6145	0	32952	
6146	0	32802	
6147	0	32600	
6148	0	32726	
6149	0	32648	
6150	0	32700	
6151	0	32718	
6152	0	32780	
6153	0	32620	
6154	0	32680	
6155	0	32792	
6156	0	32964	
6157	0	33180	
6158	0	33314	
6159	0	33152	
6160	0	32984	
6161	0	32572	
6162	0	32588	
6163	0	32600	
6164	0	32660	
6165	0	32860	
6166	0	32804	
6167	0	32814	
6168	0	33004	
6169	0	33076	
6170	0	33240	
6171	0	32912	
6172	0	32552	
6173	0	32292	
6174	0	32372	
6175	0	32684	
6176	0	32900	
6177	0	32836	
6178	0	32800	
6179	0	32608	
6180	0	32600	
6181	0	32756	
6182	0	32896	
6183	0	32948	
6184	0	33080	
6185	0	33080	
6186	0	32908	
6187	0	32672	
6188	0	32604	
6189	0	32664	
6190	0	32552	
6191	0	32580	
6192	0	32624	
6193	0	32820	
6194	0	32732	
6195	0	32576	
6196	0	32904	
6197	0	33228	
6198	0	33348	
6199	0	33488	
6200	0	32991	
6201	0	32780	
6202	0	32756	
6203	0	32608	
6204	0	32724	
6205	0	32916	
6206	0	32804	
6207	0	32552	
6208	0	32544	
6209	0	32366	
6210	0	32392	
6211	0	32648	
6212	0	32784	
6213	0	32656	
6214	0	32968	
6215	0	33176	
6216	0	33300	
6217	0	32904	
6218	0	32692	
6219	0	32848	
6220	0	32860	
6221	0	32736	
6222	0	32944	
6223	0	32866	
6224	0	32608	
6225	0	32408	
6226	0	32468	
6227	0	33120	
6228	0	32978	
6229	0	33056	
6230	0	32932	
6231	0	32836	
6232	0	32714	
6233	0	32624	
6234	0	32636	
6235	0	32780	
6236	0	32774	
6237	0	32700	
6238	0	32692	
6239	0	32937	
6240	0	32872	
6241	0	32632	
6242	0	32500	
6243	0	32740	
6244	0	32876	
6245	0	33236	
6246	0	33082	
6247	0	32592	
6248	0	32322	
6249	0	32650	
6250	0	32714	
6251	0	32586	
6252	0	32844	
6253	0	33256	
6254	0	33368	
6255	0	33144	
6256	0	32768	
6257	0	32528	
6258	0	32796	
6259	0	33240	
6260	0	33448	
6261	0	33104	
6262	0	32652	
6263	0	32257	
6264	0	32366	
6265	0	32592	
6266	0	32988	
6267	0	32761	
6268	0	32544	
6269	0	32468	
6270	0	32596	
6271	0	32624	
6272	0	32984	
6273	0	33076	
6274	0	32738	
6275	0	32696	
6276	0	32416	
6277	0	32230	
6278	0	32024	
6279	0	32632	
6280	0	33410	
6281	0	33634	
6282	0	33704	
6283	0	33784	
6284	0	33540	
6285	0	32888	
6286	0	32556	
6287	0	32368	
6288	0	32520	
6289	0	32676	
6290	0	32726	
6291	0	32680	
6292	0	32624	
6293	0	32776	
6294	0	32692	
6295	0	32612	
6296	0	32698	
6297	0	32728	
6298	0	32668	
6299	0	32620	
6300	0	32644	
6301	0	32352	
6302	0	32392	
6303	0	32876	
6304	0	33608	
6305	0	33676	
6306	0	33168	
6307	0	32996	
6308	0	33040	
6309	0	33016	
6310	0	32688	
6311	0	32416	
6312	0	32232	
6313	0	32048	
6314	0	32184	
6315	0	32420	
6316	0	32544	
6317	0	32964	
6318	0	33120	
6319	0	33076	
6320	0	33348	
6321	0	33256	
6322	0	33428	
6323	0	33128	
6324	0	32702	
6325	0	33040	
6326	0	32920	
6327	0	32591	
6328	0	32396	
6329	0	32296	
6330	0	32416	
6331	0	32792	
6332	0	32920	
6333	0	33006	
6334	0	33080	
6335	0	33052	
6336	0	32696	
6337	0	32560	
6338	0	32580	
6339	0	32768	
6340	0	33228	
6341	0	33242	
6342	0	32836	
6343	0	32336	
6344	0	32416	
6345	0	32820	
6346	0	32870	
6347	0	32488	
6348	0	32172	
6349	0	32372	
6350	0	32572	
6351	0	32596	
6352	0	32484	
6353	0	32656	
6354	0	32858	
6355	0	33136	
6356	0	33372	
6357	0	34012	
6358	0	34084	
6359	0	33680	
6360	0	32906	
6361	0	32344	
6362	0	32520	
6363	0	32596	
6364	0	32368	
6365	0	32422	
6366	0	32480	
6367	0	32512	
6368	0	32352	
6369	0	32422	
6370	0	32624	
6371	0	32888	
6372	0	33032	
6373	0	33160	
6374	0	33088	
6375	0	32844	
6376	0	32642	
6377	0	33058	
6378	0	33336	
6379	0	33269	
6380	0	32984	
6381	0	32504	
6382	0	32248	
6383	0	32188	
6384	0	32360	
6385	0	32568	
6386	0	32708	
6387	0	32808	
6388	0	32678	
6389	0	32634	
6390	0	32760	
6391	0	33384	
6392	0	34396	
6393	0	34048	
6394	0	32868	
6395	0	32320	
6396	0	32392	
6397	0	32408	
6398	0	32544	
6399	0	32352	
6400	0	32344	
6401	0	32784	
6402	0	32700	
6403	0	32696	
6404	0	32924	
6405	0	33216	
6406	0	33308	
6407	0	32872	
6408	0	32440	
6409	0	32434	
6410	0	32612	
6411	0	32712	
6412	0	32416	
6413	0	32524	
6414	0	32876	
6415	0	33108	
6416	0	33252	
6417	0	33296	
6418	0	32960	
6419	0	32800	
6420	0	32696	
6421	0	32692	
6422	0	32624	
6423	0	32244	
6424	0	32624	
6425	0	33044	
6426	0	32928	
6427	0	32884	
6428	0	33000	
6429	0	32978	
6430	0	32728	
6431	0	32596	
6432	0	32492	
6433	0	32392	
6434	0	32504	
6435	0	32940	
6436	0	33076	
6437	0	33152	
6438	0	32832	
6439	0	32696	
6440	0	32856	
6441	0	32980	
6442	0	33368	
6443	0	33824	
6444	0	33700	
6445	0	32945	
6446	0	32368	
6447	0	32096	
6448	0	32088	
6449	0	32196	
6450	0	32648	
6451	0	32772	
6452	0	32828	
6453	0	32720	
6454	0	32628	
6455	0	32724	
6456	0	32812	
6457	0	32808	
6458	0	32688	
6459	0	32792	
6460	0	32890	
6461	0	32838	
6462	0	33012	
6463	0	33184	
6464	0	32976	
6465	0	33016	
6466	0	33056	
6467	0	32852	
6468	0	32748	
6469	0	32488	
6470	0	32388	
6471	0	32804	
6472	0	32964	
6473	0	32824	
6474	0	32840	
6475	0	32880	
6476	0	32834	
6477	0	33210	
6478	0	32920	
6479	0	32480	
6480	0	32452	
6481	0	32488	
6482	0	32728	
6483	0	32908	
6484	0	32824	
6485	0	32720	
6486	0	32602	
6487	0	32800	
6488	0	32976	
6489	0	33400	
6490	0	33088	
6491	0	32720	
6492	0	32416	
6493	0	32308	
6494	0	32604	
6495	0	32880	
6496	0	33088	
6497	0	32824	
6498	0	32776	
6499	0	32964	
6500	0	33016	
6501	0	32616	
6502	0	32660	
6503	0	33336	
6504	0	33812	
6505	0	33440	
6506	0	32712	
6507	0	32536	
6508	0	32560	
6509	0	32516	
6510	0	31960	
6511	0	31800	
6512	0	32416	
6513	0	32628	
6514	0	32668	
6515	0	32640	
6516	0	32672	
6517	0	33228	
6518	0	33336	
6519	0	33112	
6520	0	33284	
6521	0	32932	
6522	0	32684	
6523	0	32696	
6524	0	32776	
6525	0	32544	
6526	0	32432	
6527	0	32458	
6528	0	32660	
6529	0	32896	
6530	0	32904	
6531	0	33104	
6532	0	33506	
6533	0	33612	
6534	0	33070	
6535	0	32680	
6536	0	32432	
6537	0	32282	
6538	0	32704	
6539	0	33264	
6540	0	32964	
6541	0	32740	
6542	0	32908	
6543	0	32680	
6544	0	32688	
6545	0	32472	
6546	0	32584	
6547	0	32840	
6548	0	32660	
6549	0	32412	
6550	0	32632	
6551	0	33002	
6552	0	33160	
6553	0	33016	
6554	0	32796	
6555	0	32932	
6556	0	32992	
6557	0	32752	
6558	0	32664	
6559	0	32630	
6560	0	32660	
6561	0	32596	
6562	0	32492	
6563	0	32672	
6564	0	32568	
6565	0	32700	
6566	0	32976	
6567	0	33316	
6568	0	33748	
6569	0	33536	
6570	0	33100	
6571	0	32964	
6572	0	32488	
6573	0	32040	
6574	0	32196	
6575	0	32372	
6576	0	33036	
6577	0	33504	
6578	0	33076	
6579	0	32904	
6580	0	33032	
6581	0	32976	
6582	0	32872	
6583	0	32748	
6584	0	32632	
6585	0	32564	
6586	0	32672	
6587	0	32704	
6588	0	32704	
6589	0	32694	
6590	0	32580	
6591	0	32348	
6592	0	32472	
6593	0	33041	
6594	0	33032	
6595	0	32808	
6596	0	32680	
6597	0	32904	
6598	0	33028	
6599	0	32728	
6600	0	32548	
6601	0	32600	
6602	0	32612	
6603	0	32804	
6604	0	32660	
6605	0	32752	
6606	0	33000	
6607	0	33216	
6608	0	32972	
6609	0	32936	
6610	0	32896	
6611	0	32884	
6612	0	32468	
6613	0	32342	
6614	0	33016	
6615	0	33072	
6616	0	32804	
6617	0	33266	
6618	0	33396	
6619	0	33200	
6620	0	32720	
6621	0	32376	
6622	0	32472	
6623	0	33048	
6624	0	33394	
6625	0	33328	
6626	0	32656	
6627	0	32364	
6628	0	32440	
6629	0	32544	
6630	0	32612	
6631	0	32788	
6632	0	32488	
6633	0	32260	
6634	0	32496	
6635	0	32808	
6636	0	33018	
6637	0	33098	
6638	0	32820	
6639	0	32764	
6640	0	32772	
6641	0	33354	
6642	0	33464	
6643	0	32936	
6644	0	32648	
6645	0	32568	
6646	0	32774	
6647	0	32956	
6648	0	32880	
6649	0	32788	
6650	0	32784	
6651	0	32480	
6652	0	32440	
6653	0	32592	
6654	0	32852	
6655	0	32796	
6656	0	32720	
6657	0	32620	
6658	0	32976	
6659	0	33040	
6660	0	32988	
6661	0	32812	
6662	0	32816	
6663	0	33112	
6664	0	32892	
6665	0	32616	
6666	0	32200	
6667	0	32292	
6668	0	32384	
6669	0	32908	
6670	0	32960	
6671	0	33026	
6672	0	32840	
6673	0	33212	
6674	0	33378	
6675	0	33112	
6676	0	32672	
6677	0	32380	
6678	0	32208	
6679	0	32504	
6680	0	32848	
6681	0	33100	
6682	0	33264	
6683	0	33170	
6684	0	32904	
6685	0	32668	
6686	0	32770	
6687	0	32960	
6688	0	32794	
6689	0	32670	
6690	0	32968	
6691	0	32936	
6692	0	32698	
6693	0	32560	
6694	0	32864	
6695	0	32800	
6696	0	32560	
6697	0	32446	
6698	0	32712	
6699	0	33008	
6700	0	32780	
6701	0	32836	
6702	0	33016	
6703	0	32920	
6704	0	32788	
6705	0	32980	
6706	0	32864	
6707	0	31708	
6708	0	31992	
6709	0	32960	
6710	0	33278	
6711	0	33588	
6712	0	33440	
6713	0	32808	
6714	0	32832	
6715	0	32772	
6716	0	32448	
6717	0	32468	
6718	0	32760	
6719	0	32904	
6720	0	32836	
6721	0	32536	
6722	0	32792	
6723	0	33322	
6724	0	33360	
6725	0	32958	
6726	0	32482	
6727	0	32372	
6728	0	32528	
6729	0	33244	
6730	0	32956	
6731	0	32400	
6732	0	32660	
6733	0	32892	
6734	0	32928	
6735	0	32980	
6736	0	32904	
6737	0	32436	
6738	0	32496	
6739	0	32708	
6740	0	32340	
6741	0	32356	
6742	0	32796	
6743	0	33008	
6744	0	33340	
6745	0	33256	
6746	0	32748	
6747	0	32776	
6748	0	32990	
6749	0	33048	
6750	0	32824	
6751	0	32616	
6752	0	32388	
6753	0	32480	
6754	0	33092	
6755	0	33762	
6756	0	33442	
6757	0	32874	
6758	0	32620	
6759	0	32520	
6760	0	32352	
6761	0	32632	
6762	0	32812	
6763	0	32828	
6764	0	32840	
6765	0	32860	
6766	0	32748	
6767	0	32816	
6768	0	32916	
6769	0	32880	
6770	0	32560	
6771	0	32401	
6772	0	32760	
6773	0	32912	
6774	0	32912	
6775	0	32684	
6776	0	32554	
6777	0	32780	
6778	0	33204	
6779	0	33114	
6780	0	32800	
6781	0	32872	
6782	0	32864	
6783	0	32616	
6784	0	32680	
6785	0	32881	
6786	0	32896	
6787	0	32696	
6788	0	32424	
6789	0	32736	
6790	0	32672	
6791	0	32586	
6792	0	32832	
6793	0	32928	
6794	0	33060	
6795	0	32996	
6796	0	33140	
6797	0	32960	
6798	0	32536	
6799	0	32236	
6800	0	32852	
6801	0	33232	
6802	0	32968	
6803	0	32908	
6804	0	32908	
6805	0	32784	
6806	0	32680	
6807	0	32840	
6808	0	32644	
6809	0	32704	
6810	0	32640	
6811	0	32660	
6812	0	32884	
6813	0	32992	
6814	0	33024	
6815	0	32868	
6816	0	32796	
6817	0	32908	
6818	0	32788	
6819	0	32712	
6820	0	32736	
6821	0	32932	
6822	0	32762	
6823	0	32532	
6824	0	32524	
6825	0	32594	
6826	0	32852	
6827	0	32980	
6828	0	33032	
6829	0	32960	
6830	0	32984	
6831	0	32708	
6832	0	32434	
6833	0	32892	
6834	0	33072	
6835	0	32978	
6836	0	33164	
6837	0	33124	
6838	0	32522	
6839	0	32580	
6840	0	32960	
6841	0	32512	
6842	0	32132	
6843	0	32588	
6844	0	32700	
6845	0	32976	
6846	0	33212	
6847	0	33364	
6848	0	32848	
6849	0	32768	
6850	0	32936	
6851	0	32986	
6852	0	32792	
6853	0	32752	
6854	0	32556	
6855	0	32628	
6856	0	32924	
6857	0	32872	
6858	0	32886	
6859	0	32600	
6860	0	32552	
6861	0	32444	
6862	0	32548	
6863	0	32872	
6864	0	32864	
6865	0	32556	
6866	0	32760	
6867	0	32948	
6868	0	32894	
6869	0	33164	
6870	0	33266	
6871	0	33176	
6872	0	33112	
6873	0	32904	
6874	0	32496	
6875	0	32004	
6876	0	32592	
6877	0	32852	
6878	0	32756	
6879	0	32832	
6880	0	32928	
6881	0	32948	
6882	0	32692	
6883	0	32748	
6884	0	32750	
6885	0	32872	
6886	0	32896	
6887	0	32452	
6888	0	32728	
6889	0	32778	
6890	0	32700	
6891	0	32784	
6892	0	32984	
6893	0	33160	
6894	0	32948	
6895	0	32570	
6896	0	32884	
6897	0	32624	
6898	0	32656	
6899	0	33080	
6900	0	33060	
6901	0	32932	
6902	0	33056	
6903	0	33148	
6904	0	32826	
6905	0	32740	
6906	0	32724	
6907	0	32572	
6908	0	32664	
6909	0	33040	
6910	0	32608	
6911	0	32400	
6912	0	32424	
6913	0	32320	
6914	0	32828	
6915	0	33216	
6916	0	33304	
6917	0	32960	
6918	0	32836	
6919	0	32792	
6920	0	32840	
6921	0	32896	
6922	0	32654	
6923	0	32556	
6924	0	32352	
6925	0	32674	
6926	0	32864	
6927	0	32804	
6928	0	33064	
6929	0	33004	
6930	0	32744	
6931	0	32640	
6932	0	32808	
6933	0	33000	
6934	0	32964	
6935	0	33060	
6936	0	32888	
6937	0	32796	
6938	0	32680	
6939	0	32632	
6940	0	32776	
6941	0	33384	
6942	0	32744	
6943	0	32212	
6944	0	32604	
6945	0	33028	
6946	0	32888	
6947	0	32640	
6948	0	32632	
6949	0	32948	
6950	0	32920	
6951	0	32736	
6952	0	32676	
6953	0	32644	
6954	0	32900	
6955	0	32864	
6956	0	32760	
6957	0	32954	
6958	0	33060	
6959	0	32760	
6960	0	32700	
6961	0	32862	
6962	0	32980	
6963	0	32984	
6964	0	32856	
6965	0	32780	
6966	0	32826	
6967	0	32748	
6968	0	32632	
6969	0	32612	
6970	0	32676	
6971	0	32596	
6972	0	32592	
6973	0	32728	
6974	0	33056	
6975	0	32812	
6976	0	32892	
6977	0	33232	
6978	0	32860	
6979	0	32808	
6980	0	32996	
6981	0	33152	
6982	0	32994	
6983	0	32904	
6984	0	33052	
6985	0	32800	
6986	0	32356	
6987	0	32288	
6988	0	32428	
6989	0	32312	
6990	0	32612	
6991	0	33092	
6992	0	32916	
6993	0	32912	
6994	0	32960	
6995	0	32618	
6996	0	32636	
6997	0	32968	
6998	0	32876	
6999	0	32940	
7000	0	32772	
7001	0	32572	
7002	0	32980	
7003	0	33156	
7004	0	32864	
7005	0	32788	
7006	0	32976	
7007	0	32890	
7008	0	32484	
7009	0	32240	
7010	0	32332	
7011	0	32608	
7012	0	32964	
7013	0	33312	
7014	0	33084	
7015	0	32672	
7016	0	32656	
7017	0	33086	
7018	0	33256	
7019	0	33034	
7020	0	32904	
7021	0	32680	
7022	0	32712	
7023	0	32908	
7024	0	32708	
7025	0	32596	
7026	0	32978	
7027	0	33150	
7028	0	32788	
7029	0	32612	
7030	0	32826	
7031	0	32336	
7032	0	32544	
7033	0	32404	
7034	0	32632	
7035	0	32872	
7036	0	33152	
7037	0	33552	
7038	0	33304	
7039	0	32820	
7040	0	32876	
7041	0	32674	
7042	0	32164	
7043	0	31968	
7044	0	32456	
7045	0	33088	
7046	0	32748	
7047	0	32580	
7048	0	32636	
7049	0	32880	
7050	0	33028	
7051	0	33218	
7052	0	33072	
7053	0	32936	
7054	0	32816	
7055	0	32890	
7056	0	32960	
7057	0	32824	
7058	0	32892	
7059	0	32774	
7060	0	32700	
7061	0	33056	
7062	0	32868	
7063	0	32504	
7064	0	32544	
7065	0	32792	
7066	0	32862	
7067	0	33056	
7068	0	32708	
7069	0	32684	
7070	0	32900	
7071	0	32908	
7072	0	32602	
7073	0	32928	
7074	0	32852	
7075	0	32934	
7076	0	32728	
7077	0	32880	
7078	0	32912	
7079	0	32864	
7080	0	32756	
7081	0	32832	
7082	0	32824	
7083	0	32728	
7084	0	32492	
7085	0	32064	
7086	0	32568	
7087	0	33064	
7088	0	32974	
7089	0	32876	
7090	0	33108	
7091	0	33148	
7092	0	32824	
7093	0	32912	
7094	0	33068	
7095	0	32748	
7096	0	32608	
7097	0	32680	
7098	0	32632	
7099	0	32712	
7100	0	32468	
7101	0	32484	
7102	0	32870	
7103	0	32912	
7104	0	32664	
7105	0	32968	
7106	0	32752	
7107	0	33048	
7108	0	33284	
7109	0	33212	
7110	0	32732	
7111	0	32540	
7112	0	32564	
7113	0	32884	
7114	0	32922	
7115	0	32772	
7116	0	32928	
7117	0	32994	
7118	0	32832	
7119	0	32768	
7120	0	32764	
7121	0	32676	
7122	0	32448	
7123	0	32452	
7124	0	32832	
7125	0	32912	
7126	0	33004	
7127	0	32960	
7128	0	32866	
7129	0	32452	
7130	0	32318	
7131	0	32856	
7132	0	33104	
7133	0	33160	
7134	0	32754	
7135	0	32500	
7136	0	32648	
7137	0	32824	
7138	0	33056	
7139	0	33096	
7140	0	32772	
7141	0	32252	
7142	0	32524	
7143	0	32880	
7144	0	32922	
7145	0	32860	
7146	0	32840	
7147	0	32924	
7148	0	33164	
7149	0	33132	
7150	0	32972	
7151	0	32968	
7152	0	33064	
7153	0	32640	
7154	0	32388	
7155	0	32876	
7156	0	32942	
7157	0	32580	
7158	0	32720	
7159	0	32844	
7160	0	32632	
7161	0	32680	
7162	0	32856	
7163	0	32992	
7164	0	32760	
7165	0	32656	
7166	0	33184	
7167	0	32872	
7168	0	32512	
7169	0	32000	
7170	0	32080	
7171	0	32572	
7172	0	33116	
7173	0	33050	
7174	0	32756	
7175	0	32984	
7176	0	33488	
7177	0	33536	
7178	0	33132	
7179	0	32576	
7180	0	32426	
7181	0	32812	
7182	0	32716	
7183	0	32896	
7184	0	32794	
7185	0	32648	
7186	0	32606	
7187	0	32820	
7188	0	33248	
7189	0	32928	
7190	0	32520	
7191	0	32434	
7192	0	32700	
7193	0	32996	
7194	0	33290	
7195	0	33196	
7196	0	33000	
7197	0	32684	
7198	0	32584	
7199	0	32816	
7200	0	32456	
7201	0	32774	
7202	0	32452	
7203	0	32292	
7204	0	32472	
7205	0	32696	
7206	0	32980	
7207	0	33192	
7208	0	32974	
7209	0	32760	
7210	0	32688	
7211	0	33004	
7212	0	33050	
7213	0	32972	
7214	0	33032	
7215	0	33068	
7216	0	32758	
7217	0	32632	
7218	0	32716	
7219	0	32468	
7220	0	32432	
7221	0	32728	
7222	0	32836	
7223	0	32892	
7224	0	32608	
7225	0	32608	
7226	0	32996	
7227	0	33204	
7228	0	33096	
7229	0	33128	
7230	0	32876	
7231	0	32924	
7232	0	33020	
7233	0	32752	
7234	0	32492	
7235	0	32444	
7236	0	32644	
7237	0	32896	
7238	0	33052	
7239	0	32908	
7240	0	32632	
7241	0	32576	
7242	0	32692	
7243	0	32680	
7244	0	32808	
7245	0	32812	
7246	0	32954	
7247	0	32920	
7248	0	32754	
7249	0	32676	
7250	0	32640	
7251	0	32692	
7252	0	32622	
7253	0	32848	
7254	0	32960	
7255	0	32880	
7256	0	32752	
7257	0	32944	
7258	0	32904	
7259	0	32900	
7260	0	32804	
7261	0	32652	
7262	0	32836	
7263	0	32874	
7264	0	32804	
7265	0	32825	
7266	0	32724	
7267	0	32866	
7268	0	32912	
7269	0	33098	
7270	0	33168	
7271	0	32838	
7272	0	32868	
7273	0	32789	
7274	0	32592	
7275	0	32388	
7276	0	32608	
7277	0	32708	
7278	0	32844	
7279	0	32912	
7280	0	32896	
7281	0	32556	
7282	0	32544	
7283	0	32772	
7284	0	32708	
7285	0	32640	
7286	0	32600	
7287	0	32896	
7288	0	33116	
7289	0	33072	
7290	0	32736	
7291	0	32772	
7292	0	32568	
7293	0	32760	
7294	0	32808	
7295	0	32624	
7296	0	32784	
7297	0	32896	
7298	0	33236	
7299	0	33324	
7300	0	32952	
7301	0	32974	
7302	0	32648	
7303	0	32092	
7304	0	32612	
7305	0	32772	
7306	0	32496	
7307	0	32772	
7308	0	32958	
7309	0	32752	
7310	0	32956	
7311	0	33076	
7312	0	32852	
7313	0	32704	
7314	0	32968	
7315	0	33072	
7316	0	33074	
7317	0	32916	
7318	0	32872	
7319	0	32992	
7320	0	32732	
7321	0	32332	
7322	0	32172	
7323	0	32670	
7324	0	32932	
7325	0	32928	
7326	0	33068	
7327	0	32864	
7328	0	32794	
7329	0	32960	
7330	0	33000	
7331	0	32800	
7332	0	32538	
7333	0	32624	
7334	0	32672	
7335	0	32600	
7336	0	32800	
7337	0	32980	
7338	0	32816	
7339	0	32844	
7340	0	32918	
7341	0	33060	
7342	0	33180	
7343	0	32792	
7344	0	32542	
7345	0	32714	
7346	0	32852	
7347	0	32774	
7348	0	32424	
7349	0	32672	
7350	0	32688	
7351	0	32676	
7352	0	32896	
7353	0	32908	
7354	0	32948	
7355	0	33168	
7356	0	33380	
7357	0	33056	
7358	0	32424	
7359	0	32328	
7360	0	32716	
7361	0	32584	
7362	0	32512	
7363	0	32780	
7364	0	32760	
7365	0	33236	
7366	0	33048	
7367	0	32696	
7368	0	32664	
7369	0	32586	
7370	0	32622	
7371	0	32584	
7372	0	32962	
7373	0	32928	
7374	0	32780	
7375	0	32920	
7376	0	32896	
7377	0	32868	
7378	0	32648	
7379	0	32792	
7380	0	32964	
7381	0	32860	
7382	0	32656	
7383	0	32940	
7384	0	33166	
7385	0	32824	
7386	0	32480	
7387	0	32688	
7388	0	32864	
7389	0	32810	
7390	0	32768	
7391	0	32396	
7392	0	32578	
7393	0	32976	
7394	0	33236	
7395	0	33112	
7396	0	32772	
7397	0	32664	
7398	0	32544	
7399	0	32796	
7400	0	32820	
7401	0	32800	
7402	0	32876	
7403	0	32788	
7404	0	32964	
7405	0	32976	
7406	0	32976	
7407	0	32780	
7408	0	32688	
7409	0	32412	
7410	0	32432	
7411	0	32644	
7412	0	32960	
7413	0	33036	
7414	0	32730	
7415	0	32540	
7416	0	32884	
7417	0	33128	
7418	0	33044	
7419	0	32864	
7420	0	32962	
7421	0	32576	
7422	0	32356	
7423	0	32564	
7424	0	32972	
7425	0	32984	
7426	0	32812	
7427	0	32726	
7428	0	32656	
7429	0	32784	
7430	0	32884	
7431	0	32708	
7432	0	33100	
7433	0	33168	
7434	0	33092	
7435	0	33172	
7436	0	32706	
7437	0	32648	
7438	0	32504	
7439	0	32488	
7440	0	32628	
7441	0	32944	
7442	0	32980	
7443	0	33028	
7444	0	33100	
7445	0	33048	
7446	0	32752	
7447	0	32424	
7448	0	31972	
7449	0	32086	
7450	0	32720	
7451	0	32920	
7452	0	32868	
7453	0	32824	
7454	0	32808	
7455	0	32912	
7456	0	32804	
7457	0	32940	
7458	0	33036	
7459	0	32952	
7460	0	32740	
7461	0	32844	
7462	0	33096	
7463	0	33052	
7464	0	33028	
7465	0	32852	
7466	0	32724	
7467	0	32588	
7468	0	32764	
7469	0	32786	
7470	0	32760	
7471	0	32806	
7472	0	32866	
7473	0	32948	
7474	0	32948	
7475	0	32512	
7476	0	32320	
7477	0	32572	
7478	0	32820	
7479	0	32896	
7480	0	32748	
7481	0	32700	
7482	0	33004	
7483	0	33056	
7484	0	32924	
7485	0	32954	
7486	0	32940	
7487	0	32652	
7488	0	32790	
7489	0	32900	
7490	0	32654	
7491	0	32706	
7492	0	32800	
7493	0	32752	
7494	0	32732	
7495	0	32728	
7496	0	32824	
7497	0	32752	
7498	0	32900	
7499	0	33024	
7500	0	32800	
7501	0	32688	
7502	0	32940	
7503	0	32904	
7504	0	32624	
7505	0	32684	
7506	0	32674	
7507	0	32648	
7508	0	32784	
7509	0	32896	
7510	0	32868	
7511	0	32800	
7512	0	32872	
7513	0	32730	
7514	0	32848	
7515	0	32930	
7516	0	32994	
7517	0	32836	
7518	0	32828	
7519	0	32580	
7520	0	32664	
7521	0	32828	
7522	0	32804	
7523	0	32660	
7524	0	32552	
7525	0	32836	
7526	0	32920	
7527	0	33056	
7528	0	32900	
7529	0	32844	
7530	0	32848	
7531	0	32776	
7532	0	32634	
7533	0	32764	
7534	0	32660	
7535	0	32704	
7536	0	32764	
7537	0	32920	
7538	0	33138	
7539	0	32984	
7540	0	32936	
7541	0	33140	
7542	0	32996	
7543	0	32788	
7544	0	32808	
7545	0	32636	
7546	0	32564	
7547	0	32608	
7548	0	32604	
7549	0	32888	
7550	0	32606	
7551	0	32576	
7552	0	32632	
7553	0	32828	
7554	0	32800	
7555	0	32796	
7556	0	32912	
7557	0	32976	
7558	0	32960	
7559	0	32920	
7560	0	32900	
7561	0	32884	
7562	0	33004	
7563	0	32860	
7564	0	32864	
7565	0	32988	
7566	0	32536	
7567	0	32696	
7568	0	32608	
7569	0	32594	
7570	0	32802	
7571	0	32708	
7572	0	32673	
7573	0	32596	
7574	0	32550	
7575	0	32736	
7576	0	32820	
7577	0	32760	
7578	0	32992	
7579	0	32906	
7580	0	32856	
7581	0	32984	
7582	0	32984	
7583	0	32968	
7584	0	32764	
7585	0	32856	
7586	0	33058	
7587	0	32924	
7588	0	32934	
7589	0	32272	
7590	0	32196	
7591	0	32632	
7592	0	33028	
7593	0	32928	
7594	0	32698	
7595	0	32880	
7596	0	32960	
7597	0	32910	
7598	0	32990	
7599	0	32984	
7600	0	33020	
7601	0	32912	
7602	0	32836	
7603	0	32972	
7604	0	32544	
7605	0	32222	
7606	0	32676	
7607	0	33048	
7608	0	32880	
7609	0	32956	
7610	0	32496	
7611	0	32292	
7612	0	32748	
7613	0	32968	
7614	0	33112	
7615	0	33008	
7616	0	32732	
7617	0	32688	
7618	0	32761	
7619	0	32772	
7620	0	32652	
7621	0	32736	
7622	0	33100	
7623	0	33184	
7624	0	33232	
7625	0	33280	
7626	0	32824	
7627	0	32392	
7628	0	32536	
7629	0	32836	
7630	0	32672	
7631	0	32732	
7632	0	32948	
7633	0	32860	
7634	0	32480	
7635	0	32448	
7636	0	32560	
7637	0	32772	
7638	0	33068	
7639	0	32928	
7640	0	32328	
7641	0	32798	
7642	0	32956	
7643	0	32732	
7644	0	32796	
7645	0	32940	
7646	0	32928	
7647	0	33084	
7648	0	33000	
7649	0	32744	
7650	0	32940	
7651	0	32992	
7652	0	32818	
7653	0	32894	
7654	0	32813	
7655	0	32740	
7656	0	32540	
7657	0	32482	
7658	0	32484	
7659	0	32712	
7660	0	32528	
7661	0	32756	
7662	0	33244	
7663	0	33216	
7664	0	33176	
7665	0	32960	
7666	0	32944	
7667	0	32896	
7668	0	32320	
7669	0	32240	
7670	0	32532	
7671	0	32896	
7672	0	33004	
7673	0	32824	
7674	0	32656	
7675	0	32836	
7676	0	32996	
7677	0	32924	
7678	0	32648	
7679	0	32544	
7680	0	33024	
7681	0	33124	
7682	0	33028	
7683	0	33044	
7684	0	32970	
7685	0	32808	
7686	0	32444	
7687	0	32488	
7688	0	32668	
7689	0	32858	
7690	0	33068	
7691	0	32760	
7692	0	32632	
7693	0	32632	
7694	0	32660	
7695	0	32816	
7696	0	32984	
7697	0	32972	
7698	0	32656	
7699	0	32808	
7700	0	32824	
7701	0	32840	
7702	0	33108	
7703	0	32948	
7704	0	32964	
7705	0	32568	
7706	0	32404	
7707	0	32772	
7708	0	32988	
7709	0	33168	
7710	0	33216	
7711	0	33056	
7712	0	32344	
7713	0	32208	
7714	0	32344	
7715	0	32732	
7716	0	32816	
7717	0	32724	
7718	0	32804	
7719	0	32856	
7720	0	32880	
7721	0	32976	
7722	0	32848	
7723	0	32760	
7724	0	32808	
7725	0	32908	
7726	0	33248	
7727	0	33102	
7728	0	32748	
7729	0	32784	
7730	0	32462	
7731	0	32532	
7732	0	32944	
7733	0	33100	
7734	0	33076	
7735	0	32446	
7736	0	32308	
7737	0	32740	
7738	0	32872	
7739	0	32796	
7740	0	32832	
7741	0	32744	
7742	0	32804	
7743	0	32672	
7744	0	32724	
7745	0	32924	
7746	0	33112	
7747	0	33014	
7748	0	32949	
7749	0	32760	
7750	0	32868	
7751	0	33036	
7752	0	32988	
7753	0	32888	
7754	0	32792	
7755	0	32120	
7756	0	32280	
7757	0	33024	
7758	0	33060	
7759	0	32890	
7760	0	32660	
7761	0	33060	
7762	0	32916	
7763	0	33024	
7764	0	32932	
7765	0	32450	
7766	0	32196	
7767	0	32340	
7768	0	32880	
7769	0	33092	
7770	0	32930	
7771	0	32696	
7772	0	32608	
7773	0	32800	
7774	0	33052	
7775	0	32736	
7776	0	32864	
7777	0	32952	
7778	0	32890	
7779	0	32950	
7780	0	33128	
7781	0	33168	
7782	0	32748	
7783	0	32692	
7784	0	32816	
7785	0	32816	
7786	0	32660	
7787	0	32480	
7788	0	32568	
7789	0	32578	
7790	0	32736	
7791	0	32940	
7792	0	32876	
7793	0	32836	
7794	0	32948	
7795	0	32964	
7796	0	33124	
7797	0	33048	
7798	0	32680	
7799	0	32612	
7800	0	32896	
7801	0	33412	
7802	0	33128	
7803	0	32728	
7804	0	32256	
7805	0	32050	
7806	0	32416	
7807	0	32980	
7808	0	32956	
7809	0	32868	
7810	0	32722	
7811	0	32796	
7812	0	32716	
7813	0	32664	
7814	0	32898	
7815	0	32760	
7816	0	32992	
7817	0	33036	
7818	0	33144	
7819	0	32712	
7820	0	32626	
7821	0	32812	
7822	0	32960	
7823	0	32780	
7824	0	32652	
7825	0	32744	
7826	0	32760	
7827	0	32728	
7828	0	32788	
7829	0	32960	
7830	0	33188	
7831	0	32748	
7832	0	32500	
7833	0	32698	
7834	0	33140	
7835	0	33300	
7836	0	32968	
7837	0	32526	
7838	0	32176	
7839	0	32852	
7840	0	32822	
7841	0	32604	
7842	0	32852	
7843	0	32880	
7844	0	32584	
7845	0	32786	
7846	0	32856	
7847	0	33000	
7848	0	33140	
7849	0	32600	
7850	0	32772	
7851	0	32748	
7852	0	32628	
7853	0	32900	
7854	0	33250	
7855	0	33088	
7856	0	32738	
7857	0	32388	
7858	0	32480	
7859	0	32668	
7860	0	32700	
7861	0	32500	
7862	0	32578	
7863	0	32924	
7864	0	32936	
7865	0	32916	
7866	0	33004	
7867	0	33077	
7868	0	33032	
7869	0	33048	
7870	0	32888	
7871	0	32784	
7872	0	32896	
7873	0	33040	
7874	0	32848	
7875	0	32600	
7876	0	32740	
7877	0	32936	
7878	0	32872	
7879	0	32532	
7880	0	32568	
7881	0	32758	
7882	0	32960	
7883	0	32704	
7884	0	32728	
7885	0	32256	
7886	0	32132	
7887	0	32516	
7888	0	32960	
7889	0	32816	
7890	0	32948	
7891	0	33314	
7892	0	33356	
7893	0	33072	
7894	0	32676	
7895	0	32704	
7896	0	32696	
7897	0	32888	
7898	0	32976	
7899	0	32884	
7900	0	32914	
7901	0	32932	
7902	0	32788	
7903	0	32500	
7904	0	32948	
7905	0	32964	
7906	0	32736	
7907	0	32816	
7908	0	32768	
7909	0	32704	
7910	0	32640	
7911	0	32668	
7912	0	32772	
7913	0	32820	
7914	0	32736	
7915	0	32786	
7916	0	32752	
7917	0	32780	
7918	0	32792	
7919	0	32769	
7920	0	33024	
7921	0	33084	
7922	0	33088	
7923	0	32800	
7924	0	32404	
7925	0	32608	
7926	0	32968	
7927	0	33154	
7928	0	33444	
7929	0	33188	
7930	0	31612	
7931	0	31820	
7932	0	32736	
7933	0	33000	
7934	0	33192	
7935	0	32824	
7936	0	32918	
7937	0	33080	
7938	0	33204	
7939	0	33080	
7940	0	32506	
7941	0	32340	
7942	0	32632	
7943	0	32772	
7944	0	32872	
7945	0	32736	
7946	0	32396	
7947	0	32596	
7948	0	32732	
7949	0	32704	
7950	0	32962	
7951	0	33016	
7952	0	32930	
7953	0	33032	
7954	0	32992	
7955	0	32980	
7956	0	32864	
7957	0	32856	
7958	0	32886	
7959	0	32824	
7960	0	32902	
7961	0	32820	
7962	0	32970	
7963	0	33062	
7964	0	32644	
7965	0	32352	
7966	0	32236	
7967	0	32552	
7968	0	32920	
7969	0	33268	
7970	0	33056	
7971	0	32652	
7972	0	32834	
7973	0	32952	
7974	0	32848	
7975	0	32824	
7976	0	32740	
7977	0	32540	
7978	0	32528	
7979	0	32676	
7980	0	32952	
7981	0	33080	
7982	0	33024	
7983	0	32940	
7984	0	32524	
7985	0	32776	
7986	0	32852	
7987	0	32924	
7988	0	32804	
7989	0	32612	
7990	0	32700	
7991	0	32808	
7992	0	32996	
7993	0	32820	
7994	0	32696	
7995	0	33064	
7996	0	32864	
7997	0	32680	
7998	0	32572	
7999	0	32864	
8000	0	32728	
8001	0	32692	
8002	0	32996	
8003	0	33132	
8004	0	32724	
8005	0	32656	
8006	0	32792	
8007	0	32700	
8008	0	32824	
8009	0	32756	
8010	0	32896	
8011	0	32524	
8012	0	32588	
8013	0	32796	
8014	0	32992	
8015	0	32840	
8016	0	32880	
8017	0	33018	
8018	0	32844	
8019	0	32680	
8020	0	32720	
8021	0	32954	
8022	0	33052	
8023	0	33008	
8024	0	32936	
8025	0	32788	
8026	0	32600	
8027	0	32584	
8028	0	32760	
8029	0	32672	
8030	0	32628	
8031	0	32704	
8032	0	32800	
8033	0	32732	
8034	0	32804	
8035	0	32912	
8036	0	33154	
8037	0	32644	
8038	0	32474	
8039	0	32852	
8040	0	32740	
8041	0	32752	
8042	0	33024	
8043	0	32946	
8044	0	32804	
8045	0	32740	
8046	0	32844	
8047	0	32956	
8048	0	32896	
8049	0	32744	
8050	0	32672	
8051	0	33058	
8052	0	33048	
8053	0	32904	
8054	0	32804	
8055	0	32720	
8056	0	32532	
8057	0	32450	
8058	0	32622	
8059	0	32600	
8060	0	32668	
8061	0	32800	
8062	0	32828	
8063	0	32956	
8064	0	33004	
8065	0	33088	
8066	0	32936	
8067	0	32848	
8068	0	32932	
8069	0	32836	
8070	0	32764	
8071	0	32704	
8072	0	32892	
8073	0	33100	
8074	0	32868	
8075	0	32824	
8076	0	32680	
8077	0	31976	
8078	0	32352	
8079	0	32880	
8080	0	32820	
8081	0	33200	
8082	0	33328	
8083	0	33224	
8084	0	32744	
8085	0	32644	
8086	0	32796	
8087	0	32864	
8088	0	32692	
8089	0	32944	
8090	0	32828	
8091	0	32886	
8092	0	32756	
8093	0	32488	
8094	0	32804	
8095	0	32852	
8096	0	32608	
8097	0	32768	
8098	0	33248	
8099	0	32836	
8100	0	32732	
8101	0	32782	
8102	0	32804	
8103	0	32792	
8104	0	32718	
8105	0	32806	
8106	0	32856	
8107	0	32964	
8108	0	32796	
8109	0	32504	
8110	0	32652	
8111	0	32708	
8112	0	32742	
8113	0	32752	
8114	0	32812	
8115	0	32692	
8116	0	32842	
8117	0	32796	
8118	0	32840	
8119	0	32928	
8120	0	32960	
8121	0	32908	
8122	0	32880	
8123	0	32720	
8124	0	33076	
8125	0	33204	
8126	0	33020	
8127	0	32976	
8128	0	32696	
8129	0	32412	
8130	0	32532	
8131	0	32616	
8132	0	32528	
8133	0	32516	
8134	0	32680	
8135	0	32734	
8136	0	32868	
8137	0	33370	
8138	0	33266	
8139	0	32570	
8140	0	32676	
8141	0	32780	
8142	0	32520	
8143	0	32858	
8144	0	32936	
8145	0	32860	
8146	0	32912	
8147	0	32832	
8148	0	32930	
8149	0	32608	
8150	0	32716	
8151	0	32810	
8152	0	32608	
8153	0	32412	
8154	0	32596	
8155	0	32836	
8156	0	32976	
8157	0	32836	
8158	0	32742	
8159	0	32976	
8160	0	32920	
8161	0	32936	
8162	0	33076	
8163	0	33108	
8164	0	33068	
8165	0	33012	
8166	0	32796	
8167	0	32608	
8168	0	32836	
8169	0	32820	
8170	0	32768	
8171	0	32704	
8172	0	32612	
8173	0	32780	
8174	0	32716	
8175	0	32448	
8176	0	32316	
8177	0	32704	
8178	0	32912	
8179	0	32992	
8180	0	32938	
8181	0	32804	
8182	0	32548	
8183	0	32744	
8184	0	33068	
8185	0	32984	
8186	0	32712	
8187	0	32786	
8188	0	32924	
8189	0	33012	
8190	0	33112	
8191	0	32984	
8192	0	32716	
8193	0	32768	
8194	0	32576	
8195	0	32720	
8196	0	32780	
8197	0	32696	
8198	0	32648	
8199	0	32706	
8200	0	32596	
8201	0	32746	
8202	0	33012	
8203	0	33024	
8204	0	32848	
8205	0	32908	
8206	0	33216	
8207	0	33052	
8208	0	32828	
8209	0	32426	
8210	0	32400	
8211	0	32724	
8212	0	32708	
8213	0	32648	
8214	0	32656	
8215	0	32666	
8216	0	32884	
8217	0	32884	
8218	0	32696	
8219	0	32724	
8220	0	32778	
8221	0	32860	
8222	0	32988	
8223	0	32916	
8224	0	32774	
8225	0	32746	
8226	0	32696	
8227	0	32776	
8228	0	32836	
8229	0	32856	
8230	0	32882	
8231	0	33026	
8232	0	32876	
8233	0	32814	
8234	0	32712	
8235	0	32860	
8236	0	32917	
8237	0	32544	
8238	0	32504	
8239	0	32698	
8240	0	32844	
8241	0	32860	
8242	0	32886	
8243	0	32516	
8244	0	32672	
8245	0	33028	
8246	0	33280	
8247	0	32936	
8248	0	32704	
8249	0	32540	
8250	0	32852	
8251	0	33092	
8252	0	33340	
8253	0	32872	
8254	0	32276	
8255	0	32420	
8256	0	32748	
8257	0	32804	
8258	0	32716	
8259	0	32656	
8260	0	32736	
8261	0	32716	
8262	0	32576	
8263	0	32700	
8264	0	32940	
8265	0	33058	
8266	0	32968	
8267	0	32704	
8268	0	32768	
8269	0	32888	
8270	0	33046	
8271	0	32736	
8272	0	32636	
8273	0	32904	
8274	0	32988	
8275	0	32908	
8276	0	32690	
8277	0	32628	
8278	0	32812	
8279	0	33060	
8280	0	32814	
8281	0	32776	
8282	0	32912	
8283	0	32920	
8284	0	32824	
8285	0	32796	
8286	0	32732	
8287	0	32696	
8288	0	32612	
8289	0	32528	
8290	0	32624	
8291	0	32812	
8292	0	32896	
8293	0	33012	
8294	0	32980	
8295	0	32704	
8296	0	32752	
8297	0	32956	
8298	0	32888	
8299	0	32816	
8300	0	32764	
8301	0	32740	
8302	0	32732	
8303	0	32532	
8304	0	32588	
8305	0	32930	
8306	0	32910	
8307	0	32760	
8308	0	32740	
8309	0	33004	
8310	0	32944	
8311	0	32752	
8312	0	32628	
8313	0	32688	
8314	0	32804	
8315	0	32872	
8316	0	32868	
8317	0	32868	
8318	0	32852	
8319	0	32952	
8320	0	32796	
8321	0	32460	
8322	0	32516	
8323	0	32908	
8324	0	33180	
8325	0	33036	
8326	0	32864	
8327	0	32800	
8328	0	32936	
8329	0	32734	
8330	0	32828	
8331	0	32756	
8332	0	32564	
8333	0	32552	
8334	0	32648	
8335	0	32646	
8336	0	32582	
8337	0	32676	
8338	0	32904	
8339	0	32912	
8340	0	33004	
8341	0	33168	
8342	0	33200	
8343	0	33112	
8344	0	33344	
8345	0	32692	
8346	0	32392	
8347	0	32572	
8348	0	32676	
8349	0	32674	
8350	0	32744	
8351	0	32724	
8352	0	32832	
8353	0	33168	
8354	0	33012	
8355	0	32784	
8356	0	32704	
8357	0	32738	
8358	0	32656	
8359	0	32648	
8360	0	32668	
8361	0	32736	
8362	0	32696	
8363	0	32764	
8364	0	32752	
8365	0	32704	
8366	0	32944	
8367	0	33042	
8368	0	33092	
8369	0	33004	
8370	0	32924	
8371	0	32772	
8372	0	32252	
8373	0	32580	
8374	0	32812	
8375	0	32906	
8376	0	32952	
8377	0	32996	
8378	0	32794	
8379	0	32468	
8380	0	32696	
8381	0	32968	
8382	0	32624	
8383	0	32478	
8384	0	32588	
8385	0	32800	
8386	0	32864	
8387	0	32832	
8388	0	32796	
8389	0	32880	
8390	0	32808	
8391	0	33160	
8392	0	33316	
8393	0	32704	
8394	0	32416	
8395	0	32664	
8396	0	32728	
8397	0	32686	
8398	0	32784	
8399	0	33028	
8400	0	33216	
8401	0	33128	
8402	0	32832	
8403	0	32604	
8404	0	32764	
8405	0	32628	
8406	0	32576	
8407	0	32528	
8408	0	32792	
8409	0	33140	
8410	0	33240	
8411	0	32708	
8412	0	32760	
8413	0	32708	
8414	0	32904	
8415	0	32706	
8416	0	32236	
8417	0	32420	
8418	0	32728	
8419	0	33008	
8420	0	32986	
8421	0	32888	
8422	0	33106	
8423	0	33204	
8424	0	32776	
8425	0	32696	
8426	0	32968	
8427	0	33028	
8428	0	32816	
8429	0	32978	
8430	0	32628	
8431	0	32416	
8432	0	32768	
8433	0	32904	
8434	0	32904	
8435	0	32552	
8436	0	32508	
8437	0	32924	
8438	0	32824	
8439	0	32712	
8440	0	32732	
8441	0	32704	
8442	0	32760	
8443	0	32760	
8444	0	32880	
8445	0	33032	
8446	0	32876	
8447	0	32502	
8448	0	32492	
8449	0	32772	
8450	0	32742	
8451	0	32716	
8452	0	32732	
8453	0	32760	
8454	0	32804	
8455	0	32716	
8456	0	32676	
8457	0	32872	
8458	0	32964	
8459	0	32996	
8460	0	33072	
8461	0	33228	
8462	0	33064	
8463	0	32968	
8464	0	33056	
8465	0	32776	
8466	0	32894	
8467	0	32848	
8468	0	32640	
8469	0	32604	
8470	0	32676	
8471	0	32680	
8472	0	32576	
8473	0	32546	
8474	0	32704	
8475	0	32700	
8476	0	32612	
8477	0	32808	
8478	0	32912	
8479	0	32986	
8480	0	32840	
8481	0	32964	
8482	0	33096	
8483	0	33056	
8484	0	32604	
8485	0	32448	
8486	0	32488	
8487	0	32680	
8488	0	32884	
8489	0	32880	
8490	0	32896	
8491	0	32884	
8492	0	32872	
8493	0	32812	
8494	0	32752	
8495	0	32804	
8496	0	32664	
8497	0	32772	
8498	0	32788	
8499	0	32938	
8500	0	32912	
8501	0	32988	
8502	0	32946	
8503	0	32782	
8504	0	32696	
8505	0	32624	
8506	0	32917	
8507	0	32768	
8508	0	32608	
8509	0	32668	
8510	0	32592	
8511	0	32788	
8512	0	32916	
8513	0	32992	
8514	0	33040	
8515	0	32864	
8516	0	32776	
8517	0	32920	
8518	0	33052	
8519	0	33000	
8520	0	32910	
8521	0	32592	
8522	0	32449	
8523	0	32680	
8524	0	32544	
8525	0	32642	
8526	0	32664	
8527	0	32648	
8528	0	32720	
8529	0	32878	
8530	0	32856	
8531	0	32884	
8532	0	32824	
8533	0	32900	
8534	0	33004	
8535	0	32944	
8536	0	32984	
8537	0	33344	
8538	0	33120	
8539	0	32130	
8540	0	32288	
8541	0	33080	
8542	0	33008	
8543	0	32648	
8544	0	32788	
8545	0	32724	
8546	0	32780	
8547	0	32832	
8548	0	32748	
8549	0	32704	
8550	0	32705	
8551	0	32616	
8552	0	32376	
8553	0	32775	
8554	0	33008	
8555	0	33080	
8556	0	32998	
8557	0	32802	
8558	0	32726	
8559	0	32704	
8560	0	32736	
8561	0	32944	
8562	0	33000	
8563	0	32716	
8564	0	32772	
8565	0	32724	
8566	0	32832	
8567	0	32748	
8568	0	32856	
8569	0	32860	
8570	0	32840	
8571	0	32718	
8572	0	32864	
8573	0	32760	
8574	0	32672	
8575	0	32736	
8576	0	32864	
8577	0	32936	
8578	0	33152	
8579	0	33072	
8580	0	33084	
8581	0	32848	
8582	0	32578	
8583	0	32580	
8584	0	32716	
8585	0	32904	
8586	0	32844	
8587	0	32672	
8588	0	32510	
8589	0	32604	
8590	0	32964	
8591	0	33032	
8592	0	32944	
8593	0	33024	
