# OpenSignals Text File Format. Version 1
# {"00:07:80:4B:3C:23": {"position": 0, "device": "biosignalsplux", "device name": "00:07:80:4B:3C:23", "device connection": "BTH00:07:80:4B:3C:23", "sampling rate": 1000, "resolution": [16, 16], "firmware version": 776, "comments": "", "keywords": "", "mode": 0, "sync interval": 2, "date": "2024-9-26", "time": "11:9:46.689", "channels": [5, 7], "sensor": ["EMG", "EMG"], "label": ["CH5", "CH7"], "column": ["nSeq", "DI", "CH5", "CH7"], "special": [{"SpO2": [80, 40, 5, 4, 3, 3]}, {"SpO2": [80, 40, 5, 4, 3, 3]}, {"SpO2": [80, 40, 5, 4, 3, 3]}, {"SpO2": [80, 40, 5, 4, 3, 3]}, {"SpO2": [80, 40, 5, 4, 3, 3]}, {"SpO2": [80, 40, 5, 4, 3, 3]}, {"SpO2": [80, 40, 5, 4, 3, 3]}, {"SpO2": [80, 40, 5, 4, 3, 3]}], "digital IO": [0, 1], "sleeve color": ["gray", "brown"]}}
# EndOfHeader
0	0	32800	32359	
1	0	32672	32636	
2	0	32798	32499	
3	0	32836	32246	
4	0	32868	32099	
5	0	32808	32343	
6	0	32772	32323	
7	0	32808	32623	
8	0	32702	32423	
9	0	32814	32196	
10	0	32676	32316	
11	0	32724	32359	
12	0	32740	32263	
13	0	32866	32554	
14	0	32828	32423	
15	0	32828	32263	
16	0	32868	32263	
17	0	32800	32638	
18	0	32820	32639	
19	0	32850	32231	
20	0	32736	32263	
21	0	32796	32612	
22	0	32780	32510	
23	0	32808	32181	
24	0	32860	32324	
25	0	32896	32631	
26	0	32884	32487	
27	0	32798	32106	
28	0	32814	32325	
29	0	32796	32655	
30	0	32734	32591	
31	0	32684	32308	
32	0	32652	32149	
33	0	32820	32236	
34	0	32820	32375	
35	0	32844	32559	
36	0	32768	32633	
37	0	32808	32431	
38	0	32784	32222	
39	0	32812	32643	
40	0	32772	32415	
41	0	32864	32220	
42	0	32810	32455	
43	0	32817	32628	
44	0	32684	32337	
45	0	32792	32174	
46	0	32754	32340	
47	0	32790	32647	
48	0	32816	32626	
49	0	32816	32191	
50	0	32778	32429	
51	0	32812	32512	
52	0	32796	32191	
53	0	32864	32374	
54	0	32836	32662	
55	0	32844	32591	
56	0	32849	32615	
57	0	32756	32598	
58	0	32810	32369	
59	0	32711	32320	
60	0	32788	32259	
61	0	32864	32303	
62	0	32801	32550	
63	0	32728	32657	
64	0	32721	32417	
65	0	32724	32263	
66	0	32816	32403	
67	0	32788	32607	
68	0	32796	32559	
69	0	32884	32364	
70	0	32884	32255	
71	0	32896	32519	
72	0	32788	32570	
73	0	32846	32519	
74	0	32826	32170	
75	0	32790	32406	
76	0	32808	32580	
77	0	32868	32154	
78	0	32782	32309	
79	0	32710	32598	
80	0	32812	32599	
81	0	32862	32356	
82	0	32860	32263	
83	0	32788	32247	
84	0	32792	32463	
85	0	32732	32716	
86	0	32750	32638	
87	0	32844	32615	
88	0	32686	32492	
89	0	32732	32311	
90	0	32780	32314	
91	0	32816	32231	
92	0	32828	32263	
93	0	32760	32295	
94	0	32798	32330	
95	0	32785	32463	
96	0	32768	32659	
97	0	32720	32614	
98	0	32862	32508	
99	0	32752	32627	
100	0	32704	32322	
101	0	32774	32329	
102	0	32808	32665	
103	0	32972	32478	
104	0	32916	32246	
105	0	32838	32215	
106	0	32864	32599	
107	0	32828	32607	
108	0	32808	32287	
109	0	32760	32105	
110	0	32744	32482	
111	0	32791	32583	
112	0	32814	32628	
113	0	32760	32519	
114	0	32810	32380	
115	0	32796	32294	
116	0	32822	32247	
117	0	32804	32169	
118	0	32794	32188	
119	0	32808	32364	
120	0	32772	32495	
121	0	32794	32587	
122	0	32776	32135	
123	0	32744	32423	
124	0	32734	32583	
125	0	32740	32263	
126	0	32792	32391	
127	0	32752	32686	
128	0	32890	32469	
129	0	32860	32299	
130	0	32816	32564	
131	0	32802	32659	
132	0	32756	32255	
133	0	32792	32362	
134	0	32866	32655	
135	0	32932	32263	
136	0	32752	32317	
137	0	32823	32660	
138	0	32880	32423	
139	0	32834	32291	
140	0	32822	32374	
141	0	32835	32635	
142	0	32768	32604	
143	0	32836	32460	
144	0	32780	32158	
145	0	32804	32261	
146	0	32750	32473	
147	0	32676	32258	
148	0	32736	32219	
149	0	32772	32502	
150	0	32732	32663	
151	0	32790	32244	
152	0	32756	32238	
153	0	32814	32372	
154	0	32814	32237	
155	0	32824	32311	
156	0	32832	32438	
157	0	32740	32583	
158	0	32704	32503	
159	0	32992	32263	
160	0	32852	32325	
161	0	32710	32498	
162	0	32756	32671	
163	0	32753	32670	
164	0	32842	32544	
165	0	32820	32230	
166	0	32764	32186	
167	0	32756	32413	
168	0	32836	32580	
169	0	32856	32346	
170	0	32880	32327	
171	0	32936	32671	
172	0	32796	32295	
173	0	32768	32391	
174	0	32775	32550	
175	0	32775	32172	
176	0	32824	32561	
177	0	32808	32263	
178	0	32752	32431	
179	0	32756	32591	
180	0	32700	32199	
181	0	32824	32664	
182	0	32763	32309	
183	0	32748	32372	
184	0	32764	32611	
185	0	32768	32285	
186	0	32884	32239	
187	0	32788	32699	
188	0	32752	32228	
189	0	32756	32295	
190	0	32712	32639	
191	0	32876	32260	
192	0	32908	32299	
193	0	32868	32507	
194	0	32896	32355	
195	0	32922	32317	
196	0	32852	32407	
197	0	32727	32223	
198	0	32808	32216	
199	0	32704	32220	
200	0	32736	32214	
201	0	32760	32335	
202	0	32814	32350	
203	0	32798	32543	
204	0	32844	32636	
205	0	32784	32631	
206	0	32840	32471	
207	0	32740	32335	
208	0	32836	32231	
209	0	32844	32171	
210	0	32772	32191	
211	0	32760	32287	
212	0	32864	32518	
213	0	32799	32571	
214	0	32758	32670	
215	0	32804	32647	
216	0	32680	32383	
217	0	32826	32334	
218	0	32764	32215	
219	0	32772	32380	
220	0	32816	32639	
221	0	32712	32639	
222	0	32738	32391	
223	0	32864	32333	
224	0	32902	32206	
225	0	32816	32222	
226	0	32616	32254	
227	0	32878	32450	
228	0	32780	32551	
229	0	32764	32611	
230	0	32734	32327	
231	0	32748	32188	
232	0	32868	32249	
233	0	32855	32120	
234	0	32718	32343	
235	0	32814	32545	
236	0	32762	32571	
237	0	32686	32662	
238	0	32704	32589	
239	0	32660	32354	
240	0	32862	32647	
241	0	32852	32471	
242	0	32880	32246	
243	0	32744	32367	
244	0	32756	32639	
245	0	32789	32630	
246	0	32720	32308	
247	0	32776	32327	
248	0	32866	32323	
249	0	32900	32636	
250	0	32876	32575	
251	0	32677	32215	
252	0	32764	32225	
253	0	32808	32615	
254	0	32812	32563	
255	0	32816	32199	
256	0	32970	32284	
257	0	32900	32505	
258	0	32806	32569	
259	0	32840	32190	
260	0	32936	32321	
261	0	32926	32516	
262	0	32918	32711	
263	0	32864	32350	
264	0	32898	32327	
265	0	32902	32430	
266	0	32944	32513	
267	0	32968	32615	
268	0	32844	32447	
269	0	32840	32199	
270	0	32794	32472	
271	0	32833	32600	
272	0	32652	32159	
273	0	32657	32260	
274	0	32684	32655	
275	0	32720	32479	
276	0	32694	32260	
277	0	32644	32511	
278	0	32596	32537	
279	0	32832	32367	
280	0	32816	32627	
281	0	32772	32646	
282	0	32868	32344	
283	0	32668	32198	
284	0	32716	32419	
285	0	32786	32671	
286	0	32780	32646	
287	0	32788	32429	
288	0	32885	32231	
289	0	32805	32383	
290	0	32864	32647	
291	0	32808	32487	
292	0	32775	32095	
293	0	32848	32487	
294	0	32754	32574	
295	0	32764	32349	
296	0	32796	32167	
297	0	32838	32277	
298	0	32894	32319	
299	0	32916	32327	
300	0	32789	32626	
301	0	32814	32730	
302	0	32850	32519	
303	0	32801	32387	
304	0	32744	32679	
305	0	32740	32313	
306	0	32762	32231	
307	0	32748	32407	
308	0	32772	32566	
309	0	32786	32188	
310	0	32897	32354	
311	0	32862	32713	
312	0	32864	32615	
313	0	32826	32278	
314	0	32660	32212	
315	0	32716	32620	
316	0	32815	32434	
317	0	32764	32279	
318	0	32736	32191	
319	0	32805	32246	
320	0	32828	32663	
321	0	32828	32615	
322	0	32780	32236	
323	0	32718	32287	
324	0	32662	32671	
325	0	32800	32487	
326	0	32728	32247	
327	0	32860	32385	
328	0	32952	32565	
329	0	32897	32687	
330	0	32796	32679	
331	0	32772	32431	
332	0	32791	32410	
333	0	32788	32300	
334	0	32798	32228	
335	0	32817	32173	
336	0	32775	32404	
337	0	32802	32724	
338	0	32812	32636	
339	0	32756	32207	
340	0	32806	32426	
341	0	32908	32529	
342	0	32767	32143	
343	0	32736	32300	
344	0	32775	32684	
345	0	32764	32442	
346	0	32758	32215	
347	0	32742	32382	
348	0	32830	32655	
349	0	32656	32578	
350	0	32716	32255	
351	0	32772	32351	
352	0	32826	32746	
353	0	32732	32365	
354	0	32724	32343	
355	0	32580	32670	
356	0	32508	32593	
357	0	32660	32155	
358	0	32736	32359	
359	0	32748	32631	
360	0	32880	32538	
361	0	32965	32263	
362	0	33048	32426	
363	0	33134	32609	
364	0	32982	32510	
365	0	32970	32332	
366	0	33108	32151	
367	0	33078	32413	
368	0	33068	32623	
369	0	32990	32351	
370	0	33052	32189	
371	0	33132	32127	
372	0	33164	32215	
373	0	33196	32274	
374	0	33159	32367	
375	0	33166	32583	
376	0	33212	32462	
377	0	33168	32279	
378	0	33120	32167	
379	0	33304	32436	
380	0	33130	32637	
381	0	33022	32410	
382	0	32946	32235	
383	0	32932	32373	
384	0	32796	32406	
385	0	32831	32692	
386	0	32794	32559	
387	0	32724	32174	
388	0	32593	32371	
389	0	32376	32567	
390	0	32226	32645	
391	0	32212	32492	
392	0	32158	32186	
393	0	32136	32465	
394	0	32156	32687	
395	0	32354	32710	
396	0	32388	32479	
397	0	32324	32303	
398	0	32134	32253	
399	0	32124	32447	
400	0	32124	32663	
401	0	32256	32467	
402	0	32317	32188	
403	0	32364	32367	
404	0	32588	32530	
405	0	32744	32334	
406	0	32700	32231	
407	0	32868	32655	
408	0	32774	32295	
409	0	32708	32290	
410	0	32828	32647	
411	0	32842	32263	
412	0	32982	32263	
413	0	33004	32706	
414	0	33080	32260	
415	0	32996	32235	
416	0	32964	32647	
417	0	32964	32294	
418	0	32980	32251	
419	0	33028	32667	
420	0	33012	32490	
421	0	32910	32223	
422	0	33028	32654	
423	0	32910	32545	
424	0	32896	32322	
425	0	32904	32689	
426	0	32928	32311	
427	0	32940	32357	
428	0	32872	32638	
429	0	32862	32420	
430	0	32890	32316	
431	0	32956	32667	
432	0	32918	32327	
433	0	32790	32255	
434	0	32772	32582	
435	0	32746	32195	
436	0	32770	32157	
437	0	32756	32335	
438	0	32775	32215	
439	0	32910	32484	
440	0	32812	32647	
441	0	32804	32236	
442	0	32854	32330	
443	0	32932	32674	
444	0	32868	32482	
445	0	32868	32263	
446	0	32930	32647	
447	0	32850	32558	
448	0	32788	32174	
449	0	32806	32459	
450	0	32832	32647	
451	0	32824	32263	
452	0	32864	32420	
453	0	32792	32548	
454	0	32884	32247	
455	0	32716	32482	
456	0	32764	32519	
457	0	32728	32321	
458	0	32692	32155	
459	0	32784	32391	
460	0	32820	32763	
461	0	32822	32647	
462	0	32799	32519	
463	0	32784	32324	
464	0	32798	32263	
465	0	32816	32620	
466	0	32806	32698	
467	0	32792	32671	
468	0	32760	32487	
469	0	32800	32263	
470	0	32820	32133	
471	0	32912	32422	
472	0	32896	32478	
473	0	32821	32543	
474	0	32818	32663	
475	0	32749	32403	
476	0	32774	32220	
477	0	32812	32228	
478	0	32788	32629	
479	0	32790	32607	
480	0	32774	32261	
481	0	32778	32263	
482	0	32818	32188	
483	0	32906	32507	
484	0	32896	32619	
485	0	32844	32295	
486	0	32796	32232	
487	0	32752	32421	
488	0	32756	32647	
489	0	32694	32650	
490	0	32774	32391	
491	0	32822	32303	
492	0	32736	32199	
493	0	32796	32199	
494	0	32796	32316	
495	0	32748	32647	
496	0	32716	32554	
497	0	32833	32263	
498	0	32884	32365	
499	0	32902	32602	
500	0	32832	32602	
501	0	32860	32487	
502	0	32844	32183	
503	0	32794	32228	
504	0	32752	32384	
505	0	32780	32659	
506	0	32892	32671	
507	0	32744	32455	
508	0	32804	32218	
509	0	32820	32230	
510	0	32830	32452	
511	0	32817	32626	
512	0	32866	32470	
513	0	32794	32263	
514	0	32812	32490	
515	0	32726	32431	
516	0	32772	32279	
517	0	32756	32575	
518	0	32802	32332	
519	0	32794	32319	
520	0	32812	32662	
521	0	32794	32263	
522	0	32700	32387	
523	0	32768	32642	
524	0	32719	32199	
525	0	32816	32341	
526	0	32820	32655	
527	0	32804	32499	
528	0	32764	32311	
529	0	32804	32675	
530	0	32903	32487	
531	0	32828	32251	
532	0	32798	32414	
533	0	32828	32631	
534	0	32806	32332	
535	0	32868	32363	
536	0	32902	32686	
537	0	32758	32308	
538	0	32830	32196	
539	0	32800	32295	
540	0	32832	32209	
541	0	32886	32126	
542	0	32818	32263	
543	0	32752	32427	
544	0	32700	32475	
545	0	32732	32503	
546	0	32802	32599	
547	0	32852	32423	
548	0	32743	32230	
549	0	32808	32424	
550	0	32800	32623	
551	0	32757	32140	
552	0	32828	32322	
553	0	32772	32699	
554	0	32804	32306	
555	0	32784	32306	
556	0	32814	32471	
557	0	32826	32610	
558	0	32878	32263	
559	0	32829	32331	
560	0	32820	32386	
561	0	32834	32660	
562	0	32746	32235	
563	0	32749	32356	
564	0	32824	32567	
565	0	32736	32263	
566	0	32830	32363	
567	0	32810	32652	
568	0	32736	32647	
569	0	32812	32486	
570	0	32745	32195	
571	0	32796	32199	
572	0	32756	32575	
573	0	32808	32690	
574	0	32852	32311	
575	0	32856	32311	
576	0	32816	32663	
577	0	32812	32351	
578	0	32868	32287	
579	0	32792	32697	
580	0	32720	32151	
581	0	32772	32404	
582	0	32800	32655	
583	0	32858	32303	
584	0	32724	32474	
585	0	32677	32628	
586	0	32708	32247	
587	0	32832	32615	
588	0	32944	32518	
589	0	32855	32231	
590	0	32762	32350	
591	0	32788	32602	
592	0	32788	32278	
593	0	32796	32130	
594	0	32816	32419	
595	0	32820	32607	
596	0	32768	32507	
597	0	32740	32246	
598	0	32741	32263	
599	0	32752	32607	
600	0	32878	32647	
601	0	32880	32541	
602	0	32824	32335	
603	0	32772	32199	
604	0	32830	32196	
605	0	32800	32508	
606	0	32749	32615	
607	0	32820	32770	
608	0	32874	32367	
609	0	32756	32255	
610	0	32760	32215	
611	0	32728	32383	
612	0	32844	32660	
613	0	32884	32471	
614	0	32888	32172	
615	0	32778	32484	
616	0	32781	32615	
617	0	32798	32262	
618	0	32732	32244	
619	0	32774	32462	
620	0	32796	32556	
621	0	32862	32166	
622	0	32830	32252	
623	0	32775	32647	
624	0	32866	32583	
625	0	32748	32213	
626	0	32846	32204	
627	0	32816	32319	
628	0	32848	32711	
629	0	32800	32583	
630	0	32858	32519	
631	0	32730	32287	
632	0	32820	32222	
633	0	32788	32273	
634	0	32860	32471	
635	0	32865	32515	
636	0	32772	32222	
637	0	32799	32359	
638	0	32900	32684	
639	0	32828	32611	
640	0	32774	32245	
641	0	32720	32239	
642	0	32798	32418	
643	0	32724	32647	
644	0	32789	32540	
645	0	32836	32199	
646	0	32804	32387	
647	0	32848	32366	
648	0	32834	32487	
649	0	32732	32615	
650	0	32780	32383	
651	0	32772	32164	
652	0	32714	32118	
653	0	32812	32447	
654	0	32804	32498	
655	0	32820	32260	
656	0	32840	32250	
657	0	32806	32646	
658	0	32780	32405	
659	0	32884	32238	
660	0	32874	32474	
661	0	32806	32631	
662	0	32896	32199	
663	0	32822	32474	
664	0	32804	32603	
665	0	32796	32207	
666	0	32922	32387	
667	0	32844	32663	
668	0	32790	32455	
669	0	32708	32239	
670	0	32734	32403	
671	0	32740	32663	
672	0	32816	32263	
673	0	32738	32351	
674	0	32738	32636	
675	0	32716	32470	
676	0	32800	32247	
677	0	32836	32623	
678	0	32784	32542	
679	0	32774	32335	
680	0	32772	32182	
681	0	32884	32343	
682	0	32828	32702	
683	0	32900	32629	
684	0	32874	32539	
685	0	32834	32234	
686	0	32764	32255	
687	0	32677	32407	
688	0	32742	32583	
689	0	32688	32546	
690	0	32720	32591	
691	0	32740	32338	
692	0	32756	32227	
693	0	32760	32287	
694	0	32920	32449	
695	0	32900	32701	
696	0	32832	32623	
697	0	32816	32463	
698	0	32868	32246	
699	0	32906	32167	
700	0	32764	32302	
701	0	32822	32569	
702	0	32824	32687	
703	0	32794	32700	
704	0	32708	32492	
705	0	32812	32647	
706	0	32764	32375	
707	0	32702	32247	
708	0	32740	32628	
709	0	32816	32567	
710	0	32726	32166	
711	0	32806	32423	
712	0	32792	32662	
713	0	32774	32335	
714	0	32834	32239	
715	0	32810	32350	
716	0	32818	32391	
717	0	32844	32435	
718	0	32857	32647	
719	0	32692	32599	
720	0	32736	32361	
721	0	32832	32188	
722	0	32780	32519	
723	0	32796	32622	
724	0	32858	32582	
725	0	32892	32234	
726	0	32866	32287	
727	0	32788	32655	
728	0	32766	32462	
729	0	32760	32251	
730	0	32828	32230	
731	0	32824	32363	
732	0	32726	32501	
733	0	32800	32403	
734	0	32716	32173	
735	0	32744	32238	
736	0	32820	32612	
737	0	32848	32412	
738	0	32772	32287	
739	0	32732	32094	
740	0	32760	32263	
741	0	32954	32590	
742	0	32932	32707	
743	0	32847	32490	
744	0	32842	32399	
745	0	32734	32227	
746	0	32796	32503	
747	0	32676	32700	
748	0	32694	32375	
749	0	32862	32317	
750	0	32844	32263	
751	0	32740	32548	
752	0	32844	32503	
753	0	32810	32347	
754	0	32856	32329	
755	0	32776	32474	
756	0	32842	32151	
757	0	32759	32604	
758	0	32808	32315	
759	0	32777	32254	
760	0	32692	32604	
761	0	32784	32199	
762	0	32846	32546	
763	0	32738	32309	
764	0	32712	32186	
765	0	32824	32647	
766	0	32810	32253	
767	0	32854	32235	
768	0	32838	32578	
769	0	32800	32671	
770	0	32694	32356	
771	0	32856	32209	
772	0	32782	32583	
773	0	32866	32683	
774	0	32764	32634	
775	0	32792	32388	
776	0	32904	32175	
777	0	32808	32421	
778	0	32812	32672	
779	0	32775	32341	
780	0	32780	32177	
781	0	32796	32415	
782	0	32738	32703	
783	0	32720	32446	
784	0	32760	32193	
785	0	32817	32421	
786	0	32844	32348	
787	0	32832	32263	
788	0	32734	32351	
789	0	32820	32647	
790	0	32868	32484	
791	0	32828	32244	
792	0	32798	32340	
793	0	32791	32652	
794	0	32844	32436	
795	0	32810	32351	
796	0	32750	32216	
797	0	32830	32547	
798	0	32775	32597	
799	0	32756	32283	
800	0	32770	32239	
801	0	32748	32255	
802	0	32816	32311	
803	0	32780	32684	
804	0	32740	32532	
805	0	32788	32158	
806	0	32732	32422	
807	0	32824	32583	
808	0	32820	32238	
809	0	32919	32199	
810	0	32780	32577	
811	0	32800	32583	
812	0	32896	32207	
813	0	32828	32373	
814	0	32839	32462	
815	0	32794	32309	
816	0	32816	32263	
817	0	32901	32119	
818	0	32842	32255	
819	0	32796	32554	
820	0	32732	32561	
821	0	32760	32549	
822	0	32862	32485	
823	0	32870	32391	
824	0	32775	32226	
825	0	32720	32199	
826	0	32796	32582	
827	0	32800	32615	
828	0	32810	32235	
829	0	32824	32231	
830	0	32686	32531	
831	0	32744	32615	
832	0	32760	32455	
833	0	32766	32226	
834	0	32761	32209	
835	0	32820	32502	
836	0	32804	32775	
837	0	32808	32678	
838	0	32780	32451	
839	0	32796	32229	
840	0	32800	32324	
841	0	32869	32622	
842	0	32896	32677	
843	0	32860	32386	
844	0	32894	32255	
845	0	32906	32297	
846	0	32828	32250	
847	0	32860	32259	
848	0	32732	32607	
849	0	32700	32595	
850	0	32775	32519	
851	0	32728	32335	
852	0	32775	32251	
853	0	32866	32239	
854	0	32757	32454	
855	0	32728	32671	
856	0	32753	32247	
857	0	32849	32170	
858	0	32808	32308	
859	0	32832	32391	
860	0	32790	32492	
861	0	32756	32711	
862	0	32752	32663	
863	0	32840	32627	
864	0	32796	32663	
865	0	32826	32631	
866	0	32812	32559	
867	0	32750	32463	
868	0	32804	32364	
869	0	32788	32206	
870	0	32824	32164	
871	0	32836	32230	
872	0	32808	32407	
873	0	32783	32591	
874	0	32768	32564	
875	0	32790	32471	
876	0	32824	32257	
877	0	32816	32183	
878	0	32803	32391	
879	0	32894	32679	
880	0	32792	32610	
881	0	32836	32272	
882	0	32761	32295	
883	0	32732	32530	
884	0	32804	32682	
885	0	32804	32463	
886	0	32744	32194	
887	0	32732	32316	
888	0	32812	32708	
889	0	32804	32500	
890	0	32716	32159	
891	0	32832	32426	
892	0	32824	32663	
893	0	32756	32483	
894	0	32748	32185	
895	0	32812	32262	
896	0	32800	32471	
897	0	32860	32602	
898	0	32814	32350	
899	0	32862	32117	
900	0	32817	32199	
901	0	32788	32436	
902	0	32762	32626	
903	0	32724	32586	
904	0	32858	32578	
905	0	32798	32331	
906	0	32768	32199	
907	0	32796	32367	
908	0	32748	32415	
909	0	32830	32519	
910	0	32757	32590	
911	0	32806	32519	
912	0	32820	32295	
913	0	32780	32087	
914	0	32774	32212	
915	0	32804	32382	
916	0	32834	32671	
917	0	32788	32565	
918	0	32798	32345	
919	0	32796	32186	
920	0	32775	32335	
921	0	32818	32706	
922	0	32748	32647	
923	0	32792	32280	
924	0	32940	32287	
925	0	32784	32684	
926	0	32809	32615	
927	0	32756	32514	
928	0	32782	32638	
929	0	32800	32382	
930	0	32692	32493	
931	0	32676	32546	
932	0	32800	32302	
933	0	32834	32279	
934	0	32876	32655	
935	0	32928	32626	
936	0	32724	32340	
937	0	32806	32179	
938	0	32760	32347	
939	0	32816	32455	
940	0	32806	32647	
941	0	32844	32321	
942	0	32756	32192	
943	0	32764	32151	
944	0	32880	32213	
945	0	32802	32311	
946	0	32738	32630	
947	0	32740	32495	
948	0	32816	32217	
949	0	32903	32367	
950	0	32876	32603	
951	0	32775	32391	
952	0	32832	32179	
953	0	32834	32338	
954	0	32872	32612	
955	0	32839	32563	
956	0	32738	32431	
957	0	32720	32236	
958	0	32796	32135	
959	0	32884	32408	
960	0	32788	32775	
961	0	32826	32751	
962	0	32854	32604	
963	0	32730	32403	
964	0	32740	32187	
965	0	32764	32335	
966	0	32772	32493	
967	0	32768	32554	
968	0	32828	32391	
969	0	32876	32138	
970	0	32814	32220	
971	0	32709	32327	
972	0	32848	32571	
973	0	32804	32566	
974	0	32790	32255	
975	0	32764	32200	
976	0	32740	32277	
977	0	32732	32639	
978	0	32716	32573	
979	0	32772	32511	
980	0	32796	32331	
981	0	32736	32227	
982	0	32775	32484	
983	0	32804	32643	
984	0	32800	32455	
985	0	32716	32239	
986	0	32970	32681	
987	0	33030	32445	
988	0	32821	32126	
989	0	32772	32255	
990	0	32794	32550	
991	0	32758	32620	
992	0	32632	32463	
993	0	32658	32239	
994	0	32672	32359	
995	0	32605	32644	
996	0	32724	32610	
997	0	32700	32583	
998	0	32868	32327	
999	0	32852	32199	
1000	0	32848	32263	
1001	0	32926	32474	
1002	0	32844	32683	
1003	0	32866	32599	
1004	0	32898	32638	
1005	0	32888	32599	
1006	0	32782	32511	
1007	0	32780	32220	
1008	0	32797	32338	
1009	0	32780	32387	
1010	0	32744	32605	
1011	0	32696	32582	
1012	0	32848	32482	
1013	0	32855	32232	
1014	0	32844	32195	
1015	0	32934	32340	
1016	0	32926	32516	
1017	0	32946	32690	
1018	0	33026	32578	
1019	0	33029	32471	
1020	0	33048	32215	
1021	0	33008	32447	
1022	0	32860	32663	
1023	0	32830	32543	
1024	0	32846	32223	
1025	0	32804	32291	
1026	0	32652	32431	
1027	0	32584	32607	
1028	0	32734	32625	
1029	0	32666	32346	
1030	0	32666	32095	
1031	0	32559	32212	
1032	0	32680	32241	
1033	0	32764	32418	
1034	0	32678	32696	
1035	0	32730	32308	
1036	0	32800	32315	
1037	0	32688	32486	
1038	0	32670	32618	
1039	0	32750	32151	
1040	0	32890	32450	
1041	0	32828	32621	
1042	0	32796	32437	
1043	0	32836	32263	
1044	0	32878	32687	
1045	0	32902	32518	
1046	0	32851	32231	
1047	0	32772	32367	
1048	0	32790	32647	
1049	0	32776	32583	
1050	0	32716	32181	
1051	0	32828	32455	
1052	0	32900	32628	
1053	0	32816	32263	
1054	0	32824	32286	
1055	0	32828	32135	
1056	0	32768	32221	
1057	0	32704	32259	
1058	0	32820	32218	
1059	0	32784	32430	
1060	0	32750	32519	
1061	0	32832	32227	
1062	0	32826	32422	
1063	0	32826	32620	
1064	0	32852	32466	
1065	0	32802	32148	
1066	0	32816	32461	
1067	0	32848	32610	
1068	0	32820	32212	
1069	0	32716	32255	
1070	0	32742	32434	
1071	0	32760	32647	
1072	0	32744	32539	
1073	0	32744	32423	
1074	0	32804	32199	
1075	0	32836	32662	
1076	0	32794	32498	
1077	0	32720	32170	
1078	0	32820	32364	
1079	0	32822	32647	
1080	0	32738	32366	
1081	0	32846	32250	
1082	0	32834	32732	
1083	0	32774	32582	
1084	0	32798	32231	
1085	0	32763	32322	
1086	0	32844	32575	
1087	0	32804	32423	
1088	0	32702	32503	
1089	0	32876	32307	
1090	0	32858	32226	
1091	0	32868	32671	
1092	0	32766	32583	
1093	0	32804	32223	
1094	0	32798	32343	
1095	0	32796	32627	
1096	0	32752	32558	
1097	0	32759	32198	
1098	0	32690	32183	
1099	0	32705	32455	
1100	0	32780	32647	
1101	0	32848	32359	
1102	0	32865	32239	
1103	0	32740	32459	
1104	0	32804	32702	
1105	0	32718	32660	
1106	0	32682	32359	
1107	0	32796	32195	
1108	0	32766	32340	
1109	0	32636	32533	
1110	0	32730	32647	
1111	0	32666	32659	
1112	0	32696	32463	
1113	0	32652	32239	
1114	0	32720	32463	
1115	0	32788	32667	
1116	0	32832	32644	
1117	0	33000	32319	
1118	0	33166	32147	
1119	0	33136	32260	
1120	0	33103	32436	
1121	0	33122	32478	
1122	0	33112	32671	
1123	0	33018	32660	
1124	0	32960	32548	
1125	0	33047	32325	
1126	0	32948	32143	
1127	0	33042	32234	
1128	0	33078	32417	
1129	0	33074	32624	
1130	0	33226	32531	
1131	0	33204	32081	
1132	0	33204	32180	
1133	0	33056	32308	
1134	0	33108	32412	
1135	0	33080	32412	
1136	0	32988	32691	
1137	0	32858	32639	
1138	0	32824	32583	
1139	0	32878	32548	
1140	0	32950	32478	
1141	0	32868	32234	
1142	0	32756	32234	
1143	0	32708	32215	
1144	0	32554	32418	
1145	0	32372	32461	
1146	0	32200	32436	
1147	0	32116	32263	
1148	0	32160	32703	
1149	0	32252	32451	
1150	0	32200	32134	
1151	0	32332	32447	
1152	0	32340	32593	
1153	0	32480	32396	
1154	0	32404	32257	
1155	0	32384	32599	
1156	0	32320	32503	
1157	0	32442	32222	
1158	0	32392	32588	
1159	0	32362	32354	
1160	0	32368	32321	
1161	0	32548	32647	
1162	0	32784	32302	
1163	0	32720	32433	
1164	0	32686	32647	
1165	0	32836	32215	
1166	0	32888	32315	
1167	0	32920	32422	
1168	0	32916	32531	
1169	0	32984	32683	
1170	0	32984	32575	
1171	0	32972	32583	
1172	0	32990	32597	
1173	0	33024	32506	
1174	0	32892	32519	
1175	0	32844	32230	
1176	0	32966	32227	
1177	0	33092	32423	
1178	0	32964	32622	
1179	0	32948	32359	
1180	0	32876	32148	
1181	0	32964	32199	
1182	0	32908	32436	
1183	0	32917	32599	
1184	0	32888	32287	
1185	0	32904	32183	
1186	0	32894	32499	
1187	0	32856	32727	
1188	0	32872	32356	
1189	0	32740	32180	
1190	0	32794	32239	
1191	0	32878	32433	
1192	0	32776	32647	
1193	0	32816	32643	
1194	0	32874	32551	
1195	0	32764	32258	
1196	0	32764	32188	
1197	0	32804	32287	
1198	0	32798	32351	
1199	0	32830	32422	
1200	0	32836	32429	
1201	0	32820	32613	
1202	0	32702	32579	
1203	0	32840	32583	
1204	0	32886	32519	
1205	0	32780	32406	
1206	0	32794	32287	
1207	0	32772	32174	
1208	0	32728	32198	
1209	0	32756	32247	
1210	0	32836	32474	
1211	0	32806	32708	
1212	0	32764	32591	
1213	0	32898	32375	
1214	0	32896	32229	
1215	0	32840	32287	
1216	0	32860	32660	
1217	0	32740	32558	
1218	0	32844	32292	
1219	0	32820	32208	
1220	0	32800	32311	
1221	0	32868	32647	
1222	0	32808	32587	
1223	0	32798	32207	
1224	0	32724	32262	
1225	0	32742	32431	
1226	0	32754	32684	
1227	0	32816	32452	
1228	0	32788	32239	
1229	0	32824	32412	
1230	0	32786	32598	
1231	0	32826	32582	
1232	0	32822	32354	
1233	0	32862	32181	
1234	0	32726	32199	
1235	0	32860	32295	
1236	0	32725	32462	
1237	0	32695	32643	
1238	0	32744	32567	
1239	0	32818	32437	
1240	0	32769	32213	
1241	0	32753	32238	
1242	0	32854	32418	
1243	0	32846	32615	
1244	0	32824	32348	
1245	0	32740	32218	
1246	0	32821	32295	
1247	0	32828	32583	
1248	0	32880	32590	
1249	0	32748	32163	
1250	0	32818	32303	
1251	0	32812	32499	
1252	0	32788	32714	
1253	0	32788	32647	
1254	0	32860	32591	
1255	0	32870	32518	
1256	0	32790	32462	
1257	0	32784	32507	
1258	0	32769	32420	
1259	0	32846	32223	
1260	0	32752	32238	
1261	0	32774	32327	
1262	0	32780	32502	
1263	0	32890	32678	
1264	0	32864	32702	
1265	0	32822	32510	
1266	0	32756	32359	
1267	0	32884	32212	
1268	0	32812	32207	
1269	0	32721	32287	
1270	0	32656	32679	
1271	0	32844	32630	
1272	0	32752	32549	
1273	0	32732	32280	
1274	0	32862	32471	
1275	0	32840	32647	
1276	0	32912	32578	
1277	0	32824	32383	
1278	0	32820	32292	
1279	0	32796	32180	
1280	0	32842	32327	
1281	0	32814	32464	
1282	0	32788	32614	
1283	0	32792	32447	
1284	0	32769	32190	
1285	0	32743	32287	
1286	0	32890	32644	
1287	0	32836	32559	
1288	0	32775	32151	
1289	0	32728	32263	
1290	0	32844	32434	
1291	0	32774	32647	
1292	0	32800	32596	
1293	0	32768	32469	
1294	0	32806	32263	
1295	0	32775	32199	
1296	0	32805	32314	
1297	0	32874	32519	
1298	0	32872	32234	
1299	0	32788	32545	
1300	0	32792	32743	
1301	0	32780	32190	
1302	0	32815	32436	
1303	0	32780	32604	
1304	0	32860	32293	
1305	0	32862	32340	
1306	0	32814	32593	
1307	0	32834	32706	
1308	0	32820	32372	
1309	0	32740	32228	
1310	0	32696	32441	
1311	0	32816	32657	
1312	0	32792	32212	
1313	0	32862	32263	
1314	0	32864	32709	
1315	0	32786	32391	
1316	0	32794	32286	
1317	0	32864	32418	
1318	0	32868	32647	
1319	0	32836	32498	
1320	0	32798	32231	
1321	0	32806	32226	
1322	0	32736	32450	
1323	0	32774	32586	
1324	0	32817	32243	
1325	0	32744	32327	
1326	0	32833	32621	
1327	0	32748	32623	
1328	0	32784	32540	
1329	0	32748	32385	
1330	0	32770	32274	
1331	0	32814	32383	
1332	0	32852	32647	
1333	0	32804	32447	
1334	0	32780	32255	
1335	0	32822	32316	
1336	0	32804	32628	
1337	0	32764	32407	
1338	0	32834	32149	
1339	0	32824	32263	
1340	0	32800	32582	
1341	0	32782	32594	
1342	0	32774	32462	
1343	0	32840	32215	
1344	0	32724	32175	
1345	0	32762	32447	
1346	0	32768	32710	
1347	0	32820	32574	
1348	0	32774	32222	
1349	0	32725	32226	
1350	0	32858	32547	
1351	0	32830	32663	
1352	0	32844	32362	
1353	0	32762	32202	
1354	0	32804	32480	
1355	0	32808	32676	
1356	0	32832	32574	
1357	0	32846	32438	
1358	0	32788	32325	
1359	0	32769	32231	
1360	0	32756	32492	
1361	0	32752	32529	
1362	0	32781	32351	
1363	0	32770	32239	
1364	0	32780	32173	
1365	0	32788	32263	
1366	0	32868	32420	
1367	0	32936	32506	
1368	0	32896	32623	
1369	0	32864	32682	
1370	0	32804	32429	
1371	0	32744	32263	
1372	0	32772	32183	
1373	0	32784	32403	
1374	0	32768	32655	
1375	0	32764	32291	
1376	0	32700	32183	
1377	0	32872	32326	
1378	0	32860	32684	
1379	0	32788	32614	
1380	0	32830	32534	
1381	0	32816	32261	
1382	0	32764	32191	
1383	0	32718	32261	
1384	0	32719	32415	
1385	0	32783	32454	
1386	0	32782	32620	
1387	0	32828	32580	
1388	0	32772	32379	
1389	0	32762	32263	
1390	0	32824	32434	
1391	0	32828	32734	
1392	0	32918	32607	
1393	0	32844	32391	
1394	0	32772	32151	
1395	0	32816	32286	
1396	0	32860	32500	
1397	0	32796	32582	
1398	0	32796	32198	
1399	0	32820	32262	
1400	0	32772	32628	
1401	0	32736	32383	
1402	0	32778	32244	
1403	0	32813	32407	
1404	0	32770	32604	
1405	0	32799	32324	
1406	0	32822	32327	
1407	0	32857	32687	
1408	0	32836	32564	
1409	0	32790	32163	
1410	0	32808	32391	
1411	0	32774	32223	
1412	0	32800	32199	
1413	0	32732	32500	
1414	0	32774	32622	
1415	0	32844	32260	
1416	0	32844	32207	
1417	0	32720	32571	
1418	0	32788	32310	
1419	0	32830	32183	
1420	0	32748	32468	
1421	0	32712	32731	
1422	0	32789	32495	
1423	0	32804	32259	
1424	0	32796	32199	
1425	0	32812	32519	
1426	0	32740	32563	
1427	0	32828	32372	
1428	0	32864	32234	
1429	0	32836	32327	
1430	0	32790	32538	
1431	0	32816	32647	
1432	0	32794	32419	
1433	0	32772	32167	
1434	0	32820	32478	
1435	0	32780	32618	
1436	0	32824	32379	
1437	0	32824	32209	
1438	0	32776	32643	
1439	0	32794	32446	
1440	0	32758	32228	
1441	0	32748	32189	
1442	0	32840	32492	
1443	0	32732	32606	
1444	0	32822	32551	
1445	0	32785	32498	
1446	0	32806	32086	
1447	0	32800	32343	
1448	0	32740	32615	
1449	0	32828	32628	
1450	0	32796	32569	
1451	0	32754	32231	
1452	0	32772	32210	
1453	0	32810	32357	
1454	0	32808	32527	
1455	0	32830	32639	
1456	0	32900	32583	
1457	0	32770	32314	
1458	0	32836	32212	
1459	0	32820	32263	
1460	0	32756	32452	
1461	0	32798	32657	
1462	0	32862	32583	
1463	0	32752	32452	
1464	0	32860	32166	
1465	0	32676	32305	
1466	0	32744	32465	
1467	0	32738	32609	
1468	0	32790	32565	
1469	0	32700	32166	
1470	0	32775	32435	
1471	0	32842	32599	
1472	0	32788	32247	
1473	0	32834	32287	
1474	0	32808	32439	
1475	0	32852	32643	
1476	0	32884	32543	
1477	0	32798	32315	
1478	0	32866	32164	
1479	0	32756	32198	
1480	0	32832	32462	
1481	0	32830	32673	
1482	0	32772	32342	
1483	0	32792	32283	
1484	0	32772	32390	
1485	0	32768	32596	
1486	0	32689	32391	
1487	0	32794	32191	
1488	0	32828	32372	
1489	0	32840	32644	
1490	0	32791	32568	
1491	0	32804	32346	
1492	0	32840	32204	
1493	0	32832	32431	
1494	0	32815	32620	
1495	0	32744	32454	
1496	0	32821	32188	
1497	0	32736	32340	
1498	0	32836	32692	
1499	0	32818	32583	
1500	0	32760	32263	
1501	0	32672	32343	
1502	0	32746	32695	
1503	0	32800	32503	
1504	0	32834	32254	
1505	0	32852	32183	
1506	0	32804	32222	
1507	0	32728	32364	
1508	0	32868	32506	
1509	0	32894	32663	
1510	0	32864	32682	
1511	0	32792	32599	
1512	0	32860	32227	
1513	0	32784	32223	
1514	0	32776	32391	
1515	0	32842	32615	
1516	0	32822	32610	
1517	0	32778	32336	
1518	0	32772	32135	
1519	0	32775	32387	
1520	0	32865	32668	
1521	0	32846	32578	
1522	0	32872	32358	
1523	0	32916	32143	
1524	0	32758	32263	
1525	0	32748	32391	
1526	0	32788	32610	
1527	0	32740	32388	
1528	0	32746	32179	
1529	0	32782	32220	
1530	0	32775	32438	
1531	0	32792	32772	
1532	0	32817	32643	
1533	0	32780	32326	
1534	0	32878	32251	
1535	0	32800	32379	
1536	0	32775	32495	
1537	0	32860	32660	
1538	0	32774	32526	
1539	0	32774	32466	
1540	0	32820	32444	
1541	0	32845	32311	
1542	0	32854	32158	
1543	0	32868	32299	
1544	0	32822	32358	
1545	0	32756	32371	
1546	0	32688	32498	
1547	0	32794	32676	
1548	0	32756	32583	
1549	0	32808	32492	
1550	0	32820	32167	
1551	0	32774	32153	
1552	0	32794	32334	
1553	0	32774	32583	
1554	0	32774	32574	
1555	0	32744	32439	
1556	0	32724	32174	
1557	0	32868	32273	
1558	0	32758	32391	
1559	0	32800	32692	
1560	0	32804	32588	
1561	0	32820	32204	
1562	0	32874	32373	
1563	0	32824	32656	
1564	0	32796	32492	
1565	0	32824	32199	
1566	0	32814	32311	
1567	0	32804	32514	
1568	0	32826	32676	
1569	0	32808	32593	
1570	0	32774	32399	
1571	0	32726	32207	
1572	0	32774	32287	
1573	0	32780	32335	
1574	0	32760	32647	
1575	0	32758	32609	
1576	0	32801	32494	
1577	0	32774	32276	
1578	0	32788	32247	
1579	0	32814	32263	
1580	0	32830	32255	
1581	0	32774	32382	
1582	0	32804	32678	
1583	0	32852	32454	
1584	0	32826	32228	
1585	0	32798	32551	
1586	0	32834	32465	
1587	0	32852	32153	
1588	0	32799	32583	
1589	0	32798	32390	
1590	0	32756	32246	
1591	0	32816	32629	
1592	0	32828	32307	
1593	0	32740	32260	
1594	0	32883	32654	
1595	0	32708	32657	
1596	0	32820	32308	
1597	0	32728	32151	
1598	0	32758	32255	
1599	0	32736	32506	
1600	0	32790	32641	
1601	0	32848	32614	
1602	0	32868	32508	
1603	0	32806	32247	
1604	0	32729	32295	
1605	0	32808	32495	
1606	0	32828	32711	
1607	0	32744	32671	
1608	0	32742	32487	
1609	0	32838	32449	
1610	0	32924	32511	
1611	0	32788	32607	
1612	0	32758	32639	
1613	0	32848	32678	
1614	0	32784	32625	
1615	0	32834	32508	
1616	0	32812	32426	
1617	0	32752	32288	
1618	0	32792	32252	
1619	0	32708	32255	
1620	0	32784	32327	
1621	0	32820	32327	
1622	0	32884	32382	
1623	0	32772	32316	
1624	0	32780	32462	
1625	0	32752	32484	
1626	0	32798	32708	
1627	0	32774	32660	
1628	0	32752	32606	
1629	0	32782	32635	
1630	0	32794	32573	
1631	0	32904	32654	
1632	0	32832	32583	
1633	0	32812	32508	
1634	0	32770	32366	
1635	0	32904	32610	
1636	0	32818	32384	
1637	0	32818	32149	
1638	0	32735	32464	
1639	0	32836	32611	
1640	0	32880	32391	
1641	0	32756	32166	
1642	0	32732	32295	
1643	0	32789	32596	
1644	0	32744	32622	
1645	0	32784	32375	
1646	0	32776	32251	
1647	0	32690	32332	
1648	0	32816	32495	
1649	0	32744	32642	
1650	0	32812	32665	
1651	0	32802	32664	
1652	0	32856	32519	
1653	0	32876	32218	
1654	0	32868	32413	
1655	0	32873	32612	
1656	0	32856	32182	
1657	0	32812	32356	
1658	0	32878	32644	
1659	0	32856	32423	
1660	0	32824	32229	
1661	0	32804	32343	
1662	0	32780	32455	
1663	0	32804	32659	
1664	0	32768	32255	
1665	0	32774	32148	
1666	0	32858	32327	
1667	0	32740	32425	
1668	0	32775	32634	
1669	0	32740	32634	
1670	0	32780	32537	
1671	0	32797	32303	
1672	0	32790	32222	
1673	0	32790	32183	
1674	0	32792	32263	
1675	0	32852	32389	
1676	0	32760	32575	
1677	0	32760	32546	
1678	0	32836	32716	
1679	0	32796	32353	
1680	0	32788	32382	
1681	0	32866	32634	
1682	0	32846	32445	
1683	0	32778	32263	
1684	0	32800	32292	
1685	0	32896	32603	
1686	0	32844	32647	
1687	0	32756	32663	
1688	0	32769	32300	
1689	0	32745	32228	
1690	0	32740	32382	
1691	0	32815	32607	
1692	0	32764	32397	
1693	0	32794	32284	
1694	0	32812	32341	
1695	0	32818	32603	
1696	0	32890	32542	
1697	0	32844	32239	
1698	0	32808	32343	
1699	0	32784	32603	
1700	0	32692	32222	
1701	0	32772	32402	
1702	0	32766	32615	
1703	0	32797	32513	
1704	0	32775	32310	
1705	0	32808	32220	
1706	0	32704	32390	
1707	0	32858	32658	
1708	0	32890	32436	
1709	0	32772	32247	
1710	0	32910	32478	
1711	0	32884	32596	
1712	0	32834	32187	
1713	0	32812	32391	
1714	0	32876	32647	
1715	0	32870	32419	
1716	0	32759	32319	
1717	0	32774	32595	
1718	0	32790	32335	
1719	0	32780	32301	
1720	0	32868	32647	
1721	0	32860	32404	
1722	0	32772	32308	
1723	0	32860	32636	
1724	0	32796	32420	
1725	0	32721	32239	
1726	0	32848	32532	
1727	0	32848	32666	
1728	0	32804	32386	
1729	0	32775	32199	
1730	0	32872	32429	
1731	0	32776	32611	
1732	0	32840	32334	
1733	0	32804	32359	
1734	0	32820	32707	
1735	0	32772	32582	
1736	0	32692	32175	
1737	0	32806	32335	
1738	0	32766	32679	
1739	0	32758	32493	
1740	0	32852	32167	
1741	0	32774	32403	
1742	0	32801	32662	
1743	0	32756	32436	
1744	0	32736	32490	
1745	0	32792	32580	
1746	0	32848	32543	
1747	0	32800	32465	
1748	0	32804	32213	
1749	0	32824	32226	
1750	0	32856	32455	
1751	0	32852	32549	
1752	0	32854	32631	
1753	0	32815	32749	
1754	0	32798	32695	
1755	0	32820	32362	
1756	0	32816	32263	
1757	0	32798	32320	
1758	0	32784	32628	
1759	0	32844	32634	
1760	0	32828	32423	
1761	0	32822	32295	
1762	0	32774	32126	
1763	0	32829	32246	
1764	0	32806	32503	
1765	0	32832	32655	
1766	0	32714	32606	
1767	0	32764	32375	
1768	0	32840	32312	
1769	0	32774	32239	
1770	0	32786	32167	
1771	0	32756	32463	
1772	0	32852	32687	
1773	0	32788	32759	
1774	0	32734	32663	
1775	0	32766	32389	
1776	0	32848	32257	
1777	0	32857	32263	
1778	0	32801	32599	
1779	0	32824	32602	
1780	0	32885	32388	
1781	0	32828	32109	
1782	0	32860	32340	
1783	0	32824	32389	
1784	0	32826	32356	
1785	0	32770	32194	
1786	0	32736	32479	
1787	0	32766	32637	
1788	0	32806	32162	
1789	0	32788	32367	
1790	0	32788	32607	
1791	0	32806	32375	
1792	0	32794	32300	
1793	0	32818	32495	
1794	0	32792	32575	
1795	0	32868	32219	
1796	0	32751	32367	
1797	0	32822	32633	
1798	0	32818	32446	
1799	0	32806	32132	
1800	0	32804	32364	
1801	0	32804	32551	
1802	0	32742	32191	
1803	0	32790	32324	
1804	0	32860	32639	
1805	0	32775	32519	
1806	0	32788	32217	
1807	0	32886	32295	
1808	0	32841	32319	
1809	0	32804	32423	
1810	0	32855	32684	
1811	0	32836	32629	
1812	0	32814	32695	
1813	0	32866	32599	
1814	0	32798	32488	
1815	0	32769	32251	
1816	0	32844	32292	
1817	0	32903	32230	
1818	0	32840	32315	
1819	0	32788	32189	
1820	0	32816	32245	
1821	0	32868	32413	
1822	0	32752	32620	
1823	0	32780	32599	
1824	0	32784	32166	
1825	0	32750	32278	
1826	0	32640	32694	
1827	0	32758	32487	
1828	0	32828	32223	
1829	0	32756	32385	
1830	0	32758	32604	
1831	0	32852	32263	
1832	0	32820	32391	
1833	0	32828	32671	
1834	0	32789	32238	
1835	0	32854	32314	
1836	0	32924	32596	
1837	0	32798	32412	
1838	0	32750	32084	
1839	0	32794	32340	
1840	0	32812	32628	
1841	0	32832	32339	
1842	0	32808	32231	
1843	0	32774	32606	
1844	0	32775	32471	
1845	0	32822	32258	
1846	0	32754	32375	
1847	0	32814	32671	
1848	0	32732	32582	
1849	0	32796	32263	
1850	0	32829	32280	
1851	0	32798	32335	
1852	0	32717	32468	
1853	0	32732	32695	
1854	0	32702	32647	
1855	0	32670	32585	
1856	0	32694	32298	
1857	0	32728	32254	
1858	0	32746	32339	
1859	0	32746	32543	
1860	0	32756	32684	
1861	0	32740	32604	
1862	0	32900	32307	
1863	0	32807	32198	
1864	0	32904	32311	
1865	0	32832	32614	
1866	0	32836	32543	
1867	0	32762	32188	
1868	0	32716	32188	
1869	0	32782	32436	
1870	0	32824	32516	
1871	0	32834	32135	
1872	0	32774	32465	
1873	0	32846	32502	
1874	0	32842	32194	
1875	0	32912	32467	
1876	0	32896	32575	
1877	0	32850	32191	
1878	0	32876	32316	
1879	0	32920	32642	
1880	0	32934	32327	
1881	0	33024	32223	
1882	0	33124	32647	
1883	0	32968	32439	
1884	0	32916	32152	
1885	0	32961	32391	
1886	0	32946	32623	
1887	0	32876	32287	
1888	0	32800	32263	
1889	0	32714	32391	
1890	0	32688	32647	
1891	0	32636	32597	
1892	0	32671	32388	
1893	0	32732	32519	
1894	0	32684	32587	
1895	0	32612	32623	
1896	0	32698	32559	
1897	0	32660	32167	
1898	0	32726	32405	
1899	0	32664	32631	
1900	0	32648	32260	
1901	0	32608	32327	
1902	0	32676	32710	
1903	0	32812	32519	
1904	0	32910	32199	
1905	0	32912	32327	
1906	0	32910	32388	
1907	0	32912	32519	
1908	0	32840	32687	
1909	0	32864	32722	
1910	0	32834	32661	
1911	0	32786	32615	
1912	0	32801	32471	
1913	0	32856	32231	
1914	0	32884	32439	
1915	0	32830	32630	
1916	0	32756	32263	
1917	0	32812	32519	
1918	0	32796	32499	
1919	0	32812	32207	
1920	0	32694	32479	
1921	0	32808	32694	
1922	0	32884	32334	
1923	0	32766	32223	
1924	0	32774	32302	
1925	0	32764	32329	
1926	0	32801	32507	
1927	0	32816	32460	
1928	0	32812	32553	
1929	0	32864	32519	
1930	0	32840	32279	
1931	0	32814	32229	
1932	0	32738	32715	
1933	0	32720	32471	
1934	0	32860	32243	
1935	0	32770	32295	
1936	0	32872	32625	
1937	0	32831	32622	
1938	0	32760	32263	
1939	0	32812	32330	
1940	0	32688	32655	
1941	0	32728	32339	
1942	0	32868	32331	
1943	0	32846	32490	
1944	0	32860	32607	
1945	0	32836	32303	
1946	0	32756	32287	
1947	0	32766	32423	
1948	0	32772	32666	
1949	0	32852	32439	
1950	0	32812	32530	
1951	0	32870	32532	
1952	0	32820	32191	
1953	0	32812	32360	
1954	0	32816	32735	
1955	0	32815	32674	
1956	0	32724	32487	
1957	0	32782	32287	
1958	0	32748	32255	
1959	0	32680	32263	
1960	0	32780	32412	
1961	0	32745	32623	
1962	0	32714	32533	
1963	0	32772	32290	
1964	0	32814	32155	
1965	0	32916	32402	
1966	0	32694	32499	
1967	0	32694	32194	
1968	0	32780	32411	
1969	0	32750	32703	
1970	0	32708	32532	
1971	0	32730	32612	
1972	0	32650	32452	
1973	0	32722	32327	
1974	0	32712	32192	
1975	0	32736	32240	
1976	0	32744	32342	
1977	0	32748	32556	
1978	0	32838	32703	
1979	0	32954	32471	
1980	0	33076	32347	
1981	0	33102	32674	
1982	0	33080	32636	
1983	0	33026	32438	
1984	0	33068	32215	
1985	0	33028	32534	
1986	0	33064	32598	
1987	0	33012	32337	
1988	0	32970	32194	
1989	0	33149	32607	
1990	0	33064	32455	
1991	0	33108	32183	
1992	0	33176	32315	
1993	0	33256	32542	
1994	0	33210	32307	
1995	0	33160	32148	
1996	0	33164	32661	
1997	0	33260	32469	
1998	0	33172	32234	
1999	0	32990	32335	
2000	0	33015	32668	
2001	0	32850	32479	
2002	0	32664	32188	
2003	0	32586	32335	
2004	0	32736	32647	
2005	0	32644	32295	
2006	0	32560	32196	
2007	0	32404	32534	
2008	0	32263	32647	
2009	0	32242	32355	
2010	0	32186	32635	
2011	0	32134	32513	
2012	0	32253	32198	
2013	0	32444	32542	
2014	0	32372	32719	
2015	0	32248	32487	
2016	0	32060	32350	
2017	0	32070	32295	
2018	0	32170	32519	
2019	0	32226	32647	
2020	0	32312	32347	
2021	0	32510	32309	
2022	0	32700	32644	
2023	0	32800	32687	
2024	0	32722	32362	
2025	0	32724	32218	
2026	0	32796	32458	
2027	0	32820	32335	
2028	0	32912	32310	
2029	0	32990	32546	
2030	0	32992	32708	
2031	0	33006	32519	
2032	0	33031	32295	
2033	0	32972	32212	
2034	0	32912	32602	
2035	0	32996	32609	
2036	0	32956	32222	
2037	0	33008	32378	
2038	0	32972	32591	
2039	0	32958	32301	
2040	0	33004	32335	
2041	0	32996	32588	
2042	0	33012	32343	
2043	0	32980	32411	
2044	0	32958	32687	
2045	0	32956	32446	
2046	0	32866	32263	
2047	0	32894	32255	
2048	0	32878	32455	
2049	0	32804	32676	
2050	0	32832	32347	
2051	0	32872	32294	
2052	0	32845	32367	
2053	0	32830	32597	
2054	0	32775	32458	
2055	0	32764	32263	
2056	0	32842	32074	
2057	0	32796	32244	
2058	0	32810	32513	
2059	0	32832	32636	
2060	0	32816	32548	
2061	0	32864	32227	
2062	0	32774	32374	
2063	0	32887	32695	
2064	0	32852	32464	
2065	0	32790	32197	
2066	0	32783	32628	
2067	0	32796	32418	
2068	0	32828	32223	
2069	0	32794	32530	
2070	0	32764	32383	
2071	0	32796	32167	
2072	0	32810	32351	
2073	0	32808	32673	
2074	0	32846	32340	
2075	0	32804	32391	
2076	0	32816	32738	
2077	0	32825	32622	
2078	0	32840	32259	
2079	0	32822	32226	
2080	0	32772	32613	
2081	0	32778	32542	
2082	0	32764	32199	
2083	0	32815	32422	
2084	0	32764	32663	
2085	0	32886	32663	
2086	0	32868	32552	
2087	0	32804	32260	
2088	0	32840	32408	
2089	0	32666	32631	
2090	0	32716	32391	
2091	0	32828	32241	
2092	0	32798	32215	
2093	0	32836	32436	
2094	0	32788	32587	
2095	0	32912	32534	
2096	0	32964	32455	
2097	0	32918	32340	
2098	0	32775	32362	
2099	0	32780	32661	
2100	0	32805	32703	
2101	0	32796	32317	
2102	0	32828	32159	
2103	0	32852	32220	
2104	0	32824	32479	
2105	0	32752	32607	
2106	0	32732	32479	
2107	0	32768	32287	
2108	0	32736	32215	
2109	0	32744	32351	
2110	0	32744	32379	
2111	0	32788	32614	
2112	0	32916	32519	
2113	0	32852	32478	
2114	0	32756	32230	
2115	0	32746	32166	
2116	0	32798	32207	
2117	0	32673	32346	
2118	0	32796	32475	
2119	0	32798	32558	
2120	0	32788	32695	
2121	0	32776	32575	
2122	0	32828	32430	
2123	0	32808	32239	
2124	0	32872	32431	
2125	0	32764	32546	
2126	0	32792	32343	
2127	0	32824	32263	
2128	0	32772	32683	
2129	0	32868	32431	
2130	0	32824	32219	
2131	0	32976	32455	
2132	0	32784	32647	
2133	0	32804	32559	
2134	0	32800	32454	
2135	0	32800	32231	
2136	0	32740	32199	
2137	0	32772	32670	
2138	0	32744	32542	
2139	0	32768	32223	
2140	0	32775	32191	
2141	0	32853	32283	
2142	0	32815	32447	
2143	0	32800	32638	
2144	0	32778	32511	
2145	0	32832	32308	
2146	0	32870	32299	
2147	0	32832	32727	
2148	0	32724	32613	
2149	0	32840	32564	
2150	0	32756	32276	
2151	0	32775	32182	
2152	0	32736	32391	
2153	0	32809	32588	
2154	0	32760	32279	
2155	0	32776	32159	
2156	0	32848	32439	
2157	0	32804	32604	
2158	0	32788	32631	
2159	0	32759	32636	
2160	0	32800	32583	
2161	0	32812	32577	
2162	0	32738	32639	
2163	0	32880	32295	
2164	0	32766	32287	
2165	0	32820	32644	
2166	0	32770	32290	
2167	0	32744	32311	
2168	0	32780	32676	
2169	0	32790	32303	
2170	0	32804	32181	
2171	0	32880	32590	
2172	0	32794	32442	
2173	0	32812	32319	
2174	0	32876	32359	
2175	0	32805	32699	
2176	0	32796	32335	
2177	0	32788	32350	
2178	0	32796	32612	
2179	0	32708	32207	
2180	0	32778	32583	
2181	0	32772	32319	
2182	0	32764	32190	
2183	0	32818	32558	
2184	0	32800	32347	
2185	0	32796	32352	
2186	0	32805	32711	
2187	0	32849	32423	
2188	0	32794	32188	
2189	0	32804	32583	
2190	0	32812	32291	
2191	0	32716	32158	
2192	0	32696	32591	
2193	0	32772	32255	
2194	0	32798	32231	
2195	0	32880	32655	
2196	0	32871	32431	
2197	0	32864	32263	
2198	0	32812	32679	
2199	0	32738	32391	
2200	0	32746	32205	
2201	0	32834	32700	
2202	0	32761	32337	
2203	0	32782	32259	
2204	0	32766	32647	
2205	0	32812	32366	
2206	0	32802	32295	
2207	0	32768	32643	
2208	0	32888	32365	
2209	0	32904	32533	
2210	0	32874	32497	
2211	0	32842	32511	
2212	0	32849	32655	
2213	0	32854	32631	
2214	0	32749	32668	
2215	0	32832	32618	
2216	0	32804	32474	
2217	0	32748	32202	
2218	0	32772	32208	
2219	0	32832	32199	
2220	0	32740	32244	
2221	0	32814	32311	
2222	0	32838	32420	
2223	0	32864	32463	
2224	0	32792	32670	
2225	0	32818	32492	
2226	0	32852	32686	
2227	0	32782	32622	
2228	0	32744	32531	
2229	0	32758	32375	
2230	0	32737	32287	
2231	0	32750	32180	
2232	0	32812	32231	
2233	0	32804	32369	
2234	0	32808	32315	
2235	0	32798	32387	
2236	0	32832	32375	
2237	0	32796	32518	
2238	0	32868	32450	
2239	0	32798	32502	
2240	0	32736	32686	
2241	0	32724	32675	
2242	0	32796	32644	
2243	0	32928	32596	
2244	0	32781	32617	
2245	0	32756	32367	
2246	0	32820	32387	
2247	0	32840	32206	
2248	0	32740	32279	
2249	0	32822	32343	
2250	0	32762	32611	
2251	0	32689	32546	
2252	0	32764	32383	
2253	0	32792	32142	
2254	0	32696	32247	
2255	0	32812	32428	
2256	0	32860	32606	
2257	0	32822	32465	
2258	0	32832	32177	
2259	0	32852	32316	
2260	0	32645	32654	
2261	0	32785	32615	
2262	0	32868	32323	
2263	0	32879	32180	
2264	0	32804	32415	
2265	0	32756	32626	
2266	0	32832	32595	
2267	0	32916	32587	
2268	0	32916	32582	
2269	0	32752	32439	
2270	0	32720	32571	
2271	0	32810	32549	
2272	0	32736	32603	
2273	0	32740	32519	
2274	0	32746	32505	
2275	0	32804	32539	
2276	0	32868	32438	
2277	0	32805	32647	
2278	0	32692	32374	
2279	0	32744	32374	
2280	0	32716	32586	
2281	0	32808	32237	
2282	0	32785	32673	
2283	0	32784	32481	
2284	0	32880	32242	
2285	0	32816	32604	
2286	0	32874	32367	
2287	0	32828	32483	
2288	0	32796	32615	
2289	0	32692	32519	
2290	0	32792	32570	
2291	0	32804	32407	
2292	0	32812	32332	
2293	0	32864	32159	
2294	0	32918	32135	
2295	0	32768	32231	
2296	0	32800	32399	
2297	0	32800	32678	
2298	0	32806	32627	
2299	0	32848	32631	
2300	0	32862	32429	
2301	0	32820	32199	
2302	0	32792	32202	
2303	0	32832	32330	
2304	0	32842	32473	
2305	0	32744	32514	
2306	0	32738	32502	
2307	0	32740	32513	
2308	0	32768	32583	
2309	0	32794	32388	
2310	0	32792	32111	
2311	0	32792	32263	
2312	0	32846	32671	
2313	0	32854	32607	
2314	0	32805	32590	
2315	0	32780	32637	
2316	0	32808	32467	
2317	0	32757	32122	
2318	0	32740	32599	
2319	0	32784	32294	
2320	0	32752	32263	
2321	0	32832	32566	
2322	0	32864	32460	
2323	0	32788	32229	
2324	0	32740	32183	
2325	0	32804	32341	
2326	0	32784	32410	
2327	0	32742	32463	
2328	0	32868	32668	
2329	0	32884	32591	
2330	0	32940	32295	
2331	0	32783	32257	
2332	0	32832	32391	
2333	0	32808	32623	
2334	0	32732	32682	
2335	0	32692	32295	
2336	0	32775	32135	
2337	0	32860	32519	
2338	0	32692	32623	
2339	0	32710	32424	
2340	0	32828	32206	
2341	0	32856	32446	
2342	0	32840	32660	
2343	0	32884	32731	
2344	0	32834	32439	
2345	0	32820	32294	
2346	0	32802	32179	
2347	0	32836	32448	
2348	0	32808	32687	
2349	0	32740	32695	
2350	0	32802	32375	
2351	0	32814	32295	
2352	0	32846	32219	
2353	0	32784	32323	
2354	0	32700	32420	
2355	0	32784	32662	
2356	0	32801	32447	
2357	0	32720	32258	
2358	0	32797	32179	
2359	0	32828	32341	
2360	0	32813	32562	
2361	0	32798	32615	
2362	0	32880	32454	
2363	0	32884	32215	
2364	0	32884	32228	
2365	0	32798	32418	
2366	0	32812	32611	
2367	0	32796	32478	
2368	0	32808	32110	
2369	0	32868	32242	
2370	0	32916	32700	
2371	0	32764	32580	
2372	0	32724	32247	
2373	0	32844	32443	
2374	0	32790	32614	
2375	0	32766	32645	
2376	0	32820	32607	
2377	0	32732	32447	
2378	0	32808	32283	
2379	0	32854	32191	
2380	0	32768	32171	
2381	0	32720	32220	
2382	0	32788	32532	
2383	0	32924	32695	
2384	0	32812	32703	
2385	0	32906	32721	
2386	0	32844	32373	
2387	0	32832	32239	
2388	0	32780	32711	
2389	0	32756	32414	
2390	0	32748	32390	
2391	0	32796	32981	
2392	0	32730	32440	
2393	0	32708	32023	
2394	0	32784	32743	
2395	0	32852	32847	
2396	0	32842	32570	
2397	0	32800	32252	
2398	0	32868	31938	
2399	0	32896	32295	
2400	0	32850	32517	
2401	0	32764	32294	
2402	0	32804	32487	
2403	0	32916	32743	
2404	0	32900	32053	
2405	0	32800	31937	
2406	0	32836	32431	
2407	0	32756	32591	
2408	0	32726	32115	
2409	0	32812	32374	
2410	0	32708	32602	
2411	0	32858	32405	
2412	0	32780	32260	
2413	0	32682	32535	
2414	0	32732	32748	
2415	0	32784	32596	
2416	0	32814	32292	
2417	0	32824	32263	
2418	0	32806	32518	
2419	0	32852	32599	
2420	0	32872	32228	
2421	0	32768	32454	
2422	0	32657	32684	
2423	0	32775	32468	
2424	0	32817	32164	
2425	0	32802	32410	
2426	0	32815	32653	
2427	0	32822	32576	
2428	0	32818	32241	
2429	0	32764	32263	
2430	0	32788	32241	
2431	0	32768	32334	
2432	0	32782	32588	
2433	0	32828	32519	
2434	0	32710	32247	
2435	0	32862	32431	
2436	0	32834	32559	
2437	0	32892	32514	
2438	0	32868	32519	
2439	0	32848	32175	
2440	0	32812	32375	
2441	0	32822	32663	
2442	0	32778	32319	
2443	0	32728	32454	
2444	0	32656	32644	
2445	0	32736	32255	
2446	0	32844	32276	
2447	0	32812	32455	
2448	0	32808	32621	
2449	0	32776	32420	
2450	0	32768	32247	
2451	0	32788	32446	
2452	0	32798	32583	
2453	0	32920	32293	
2454	0	32844	32263	
2455	0	32759	32495	
2456	0	32794	32674	
2457	0	32764	32300	
2458	0	32775	32282	
2459	0	32845	32655	
2460	0	32808	32575	
2461	0	32784	32210	
2462	0	32842	32401	
2463	0	32802	32637	
2464	0	32726	32455	
2465	0	32838	32191	
2466	0	32786	32391	
2467	0	32780	32655	
2468	0	32846	32551	
2469	0	32788	32431	
2470	0	32756	32263	
2471	0	32800	32120	
2472	0	32692	32452	
2473	0	32826	32695	
2474	0	32744	32487	
2475	0	32708	32251	
2476	0	32860	32495	
2477	0	32798	32647	
2478	0	32862	32375	
2479	0	32948	32189	
2480	0	32782	32483	
2481	0	32712	32631	
2482	0	32790	32636	
2483	0	32794	32487	
2484	0	32788	32211	
2485	0	32696	32279	
2486	0	32796	32341	
2487	0	32846	32679	
2488	0	32852	32629	
2489	0	32862	32391	
2490	0	32794	32251	
2491	0	32804	32455	
2492	0	32784	32672	
2493	0	32900	32263	
2494	0	32880	32338	
2495	0	32829	32599	
2496	0	32766	32439	
2497	0	32806	32183	
2498	0	32760	32406	
2499	0	32848	32642	
2500	0	32764	32519	
2501	0	32792	32310	
2502	0	32814	32183	
2503	0	32726	32283	
2504	0	32849	32364	
2505	0	32848	32699	
2506	0	32752	32647	
2507	0	32760	32559	
2508	0	32748	32437	
2509	0	32775	32318	
2510	0	32806	32207	
2511	0	32864	32263	
2512	0	32806	32455	
2513	0	32815	32663	
2514	0	32862	32391	
2515	0	32852	32299	
2516	0	32780	32587	
2517	0	32817	32582	
2518	0	32752	32327	
2519	0	32808	32262	
2520	0	32734	32391	
2521	0	32800	32732	
2522	0	32721	32479	
2523	0	32920	32228	
2524	0	32753	32295	
2525	0	32848	32674	
2526	0	32748	32458	
2527	0	32740	32183	
2528	0	32804	32333	
2529	0	32808	32583	
2530	0	32780	32175	
2531	0	32853	32372	
2532	0	32834	32615	
2533	0	32816	32350	
2534	0	32752	32172	
2535	0	32832	32455	
2536	0	32876	32249	
2537	0	32820	32157	
2538	0	32792	32507	
2539	0	32801	32607	
2540	0	32824	32605	
2541	0	32772	32311	
2542	0	32750	32231	
2543	0	32836	32355	
2544	0	32836	32660	
2545	0	32772	32675	
2546	0	32850	32413	
2547	0	32890	32206	
2548	0	32846	32158	
2549	0	32796	32419	
2550	0	32802	32647	
2551	0	32774	32684	
2552	0	32746	32412	
2553	0	32848	32182	
2554	0	32732	32433	
2555	0	32760	32631	
2556	0	32772	32540	
2557	0	32880	32286	
2558	0	32892	32196	
2559	0	32816	32255	
2560	0	32788	32495	
2561	0	32888	32251	
2562	0	32780	32314	
2563	0	32788	32647	
2564	0	32788	32558	
2565	0	32741	32150	
2566	0	32750	32263	
2567	0	32840	32601	
2568	0	32832	32598	
2569	0	32758	32244	
2570	0	32836	32239	
2571	0	32785	32380	
2572	0	32804	32647	
2573	0	32820	32735	
2574	0	32680	32615	
2575	0	32768	32542	
2576	0	32964	32452	
2577	0	32752	32231	
2578	0	32808	32120	
2579	0	32862	32331	
2580	0	32828	32383	
2581	0	32796	32492	
2582	0	32876	32647	
2583	0	32732	32548	
2584	0	32826	32295	
2585	0	32796	32235	
2586	0	32760	32391	
2587	0	32868	32727	
2588	0	32774	32602	
2589	0	32816	32453	
2590	0	32720	32206	
2591	0	32740	32199	
2592	0	32756	32460	
2593	0	32818	32695	
2594	0	32826	32630	
2595	0	32824	32604	
2596	0	32808	32436	
2597	0	32813	32343	
2598	0	32852	32127	
2599	0	32841	32206	
2600	0	32781	32383	
2601	0	32804	32519	
2602	0	32852	32447	
2603	0	32804	32604	
2604	0	32612	32327	
2605	0	32734	32178	
2606	0	32798	32581	
2607	0	32796	32391	
2608	0	32838	32186	
2609	0	32848	32507	
2610	0	32828	32676	
2611	0	32720	32124	
2612	0	32730	32278	
2613	0	32856	32679	
2614	0	32827	32327	
2615	0	32860	32159	
2616	0	32804	32351	
2617	0	32788	32591	
2618	0	32820	32430	
2619	0	32830	32293	
2620	0	32732	32663	
2621	0	32816	32222	
2622	0	32772	32455	
2623	0	32820	32674	
2624	0	32779	32279	
2625	0	32776	32534	
2626	0	32844	32368	
2627	0	32732	32211	
2628	0	32848	32620	
2629	0	32734	32309	
2630	0	32782	32151	
2631	0	32746	32495	
2632	0	32798	32547	
2633	0	32820	32263	
2634	0	32804	32343	
2635	0	32804	32639	
2636	0	32764	32374	
2637	0	32826	32247	
2638	0	32798	32566	
2639	0	32724	32731	
2640	0	32796	32455	
2641	0	32844	32263	
2642	0	32842	32413	
2643	0	32804	32615	
2644	0	32772	32468	
2645	0	32782	32211	
2646	0	32744	32242	
2647	0	32752	32583	
2648	0	32836	32594	
2649	0	32848	32374	
2650	0	32884	32231	
2651	0	32798	32583	
2652	0	32784	32463	
2653	0	32820	32302	
2654	0	32830	32212	
2655	0	32775	32487	
2656	0	32898	32647	
2657	0	32766	32594	
2658	0	32772	32444	
2659	0	32838	32255	
2660	0	32932	32391	
2661	0	32832	32775	
2662	0	32741	32630	
2663	0	32820	32467	
2664	0	32828	32263	
2665	0	32742	32186	
2666	0	32756	32327	
2667	0	32732	32636	
2668	0	32778	32647	
2669	0	32816	32431	
2670	0	32786	32193	
2671	0	32696	32300	
2672	0	32778	32601	
2673	0	32828	32557	
2674	0	32804	32295	
2675	0	32828	32251	
2676	0	32854	32427	
2677	0	32814	32620	
2678	0	32824	32620	
2679	0	32748	32458	
2680	0	32812	32279	
2681	0	32900	32335	
2682	0	32798	32615	
2683	0	32780	32514	
2684	0	32760	32231	
2685	0	32918	32359	
2686	0	32868	32631	
2687	0	32786	32646	
2688	0	32724	32495	
2689	0	32694	32607	
2690	0	32780	32603	
2691	0	32804	32482	
2692	0	32776	32358	
2693	0	32812	32255	
2694	0	32721	32303	
2695	0	32697	32642	
2696	0	32848	32490	
2697	0	32808	32380	
2698	0	32810	32262	
2699	0	32682	32311	
2700	0	32766	32439	
2701	0	32888	32687	
2702	0	32932	32486	
2703	0	32932	32254	
2704	0	32865	32190	
2705	0	32832	32287	
2706	0	32844	32681	
2707	0	32812	32468	
2708	0	32790	32630	
2709	0	32772	32711	
2710	0	32796	32573	
2711	0	32828	32420	
2712	0	32816	32295	
2713	0	32754	32174	
2714	0	32778	32127	
2715	0	32880	32354	
2716	0	32780	32463	
2717	0	32808	32263	
2718	0	32854	32559	
2719	0	32804	32467	
2720	0	32782	32209	
2721	0	32796	32641	
2722	0	32766	32327	
2723	0	32636	32131	
2724	0	32720	32495	
2725	0	32712	32615	
2726	0	32698	32223	
2727	0	32680	32262	
2728	0	32824	32615	
2729	0	32736	32466	
2730	0	32753	32295	
2731	0	32744	32430	
2732	0	32894	32679	
2733	0	32916	32367	
2734	0	32868	32133	
2735	0	32840	32560	
2736	0	32804	32631	
2737	0	32783	32623	
2738	0	32708	32423	
2739	0	32764	32151	
2740	0	32748	32250	
2741	0	32737	32380	
2742	0	32792	32647	
2743	0	32853	32671	
2744	0	32928	32607	
2745	0	32900	32402	
2746	0	32890	32326	
2747	0	32952	32185	
2748	0	32910	32413	
2749	0	32974	32463	
2750	0	32832	32599	
2751	0	32968	32610	
2752	0	33082	32588	
2753	0	33004	32503	
2754	0	32910	32284	
2755	0	32848	32188	
2756	0	32800	32159	
2757	0	32758	32263	
2758	0	32808	32501	
2759	0	32700	32619	
2760	0	32606	32605	
2761	0	32806	32643	
2762	0	32718	32555	
2763	0	32684	32379	
2764	0	32688	32213	
2765	0	32646	32263	
2766	0	32620	32591	
2767	0	32736	32348	
2768	0	32776	32327	
2769	0	32753	32655	
2770	0	32686	32363	
2771	0	32546	32415	
2772	0	32761	32626	
2773	0	32860	32316	
2774	0	32870	32340	
2775	0	32872	32487	
2776	0	32830	32284	
2777	0	32872	32694	
2778	0	32892	32284	
2779	0	32610	32252	
2780	0	32775	32663	
2781	0	32896	32210	
2782	0	32909	32519	
2783	0	32789	32383	
2784	0	32839	32247	
2785	0	32764	32599	
2786	0	32798	32327	
2787	0	32802	32170	
2788	0	32828	32618	
2789	0	32704	32390	
2790	0	32836	32263	
2791	0	32945	32623	
2792	0	32828	32411	
2793	0	32772	32227	
2794	0	32877	32476	
2795	0	32772	32601	
2796	0	32788	32719	
2797	0	32818	32391	
2798	0	32832	32255	
2799	0	32862	32446	
2800	0	32764	32647	
2801	0	32744	32471	
2802	0	32764	32349	
2803	0	32746	32182	
2804	0	32818	32170	
2805	0	32828	32251	
2806	0	32750	32163	
2807	0	32814	32231	
2808	0	32735	32154	
2809	0	32848	32255	
2810	0	32844	32309	
2811	0	32762	32244	
2812	0	32801	32569	
2813	0	32776	32311	
2814	0	32736	32444	
2815	0	32820	32655	
2816	0	32822	32263	
2817	0	32870	32239	
2818	0	32696	32503	
2819	0	32746	32606	
2820	0	32847	32281	
2821	0	32808	32277	
2822	0	32823	32647	
2823	0	32852	32487	
2824	0	32788	32279	
2825	0	32813	32255	
2826	0	32692	32604	
2827	0	32712	32476	
2828	0	32694	32239	
2829	0	32772	32555	
2830	0	32826	32694	
2831	0	32774	32326	
2832	0	32758	32338	
2833	0	32833	32661	
2834	0	32708	32244	
2835	0	32664	32418	
2836	0	32704	32719	
2837	0	32660	32246	
2838	0	32676	32223	
2839	0	32784	32232	
2840	0	32646	32214	
2841	0	32580	32281	
2842	0	32752	32212	
2843	0	32678	32263	
2844	0	32804	32339	
2845	0	32732	32382	
2846	0	32728	32636	
2847	0	32974	32606	
2848	0	33048	32466	
2849	0	33048	32228	
2850	0	33100	32263	
2851	0	33136	32386	
2852	0	33124	32663	
2853	0	33068	32579	
2854	0	33052	32491	
2855	0	33048	32407	
2856	0	33040	32167	
2857	0	32918	32207	
2858	0	33048	32238	
2859	0	32977	32279	
2860	0	32938	32259	
2861	0	33050	32302	
2862	0	33282	32300	
2863	0	33252	32422	
2864	0	33198	32667	
2865	0	33177	32667	
2866	0	33132	32615	
2867	0	33058	32567	
2868	0	32990	32637	
2869	0	32816	32511	
2870	0	32864	32356	
2871	0	32881	32351	
2872	0	32687	32260	
2873	0	32728	32255	
2874	0	32596	32175	
2875	0	32652	32178	
2876	0	32365	32133	
2877	0	32350	32179	
2878	0	32168	32199	
2879	0	32152	32254	
2880	0	32272	32215	
2881	0	32172	32226	
2882	0	32208	32314	
2883	0	32344	32325	
2884	0	32312	32263	
2885	0	32284	32251	
2886	0	32228	32135	
2887	0	32182	32235	
2888	0	32308	32207	
2889	0	32438	32224	
2890	0	32448	32292	
2891	0	32524	32263	
2892	0	32652	32341	
2893	0	32680	32327	
2894	0	32718	32167	
2895	0	32792	32191	
2896	0	32964	32097	
2897	0	32936	32163	
2898	0	32960	32295	
2899	0	32985	32383	
2900	0	32996	32423	
2901	0	33052	32468	
2902	0	32910	32550	
2903	0	32881	32551	
2904	0	32954	32519	
2905	0	32996	32647	
2906	0	32900	32679	
2907	0	32968	32588	
2908	0	32900	32554	
2909	0	32980	32543	
2910	0	32972	32458	
2911	0	32996	32327	
2912	0	32958	32178	
2913	0	32964	32204	
2914	0	32916	32693	
2915	0	32950	32422	
2916	0	32900	32359	
2917	0	32804	32645	
2918	0	32815	32247	
2919	0	32840	32334	
2920	0	32953	32646	
2921	0	32856	32478	
2922	0	32808	32193	
2923	0	32828	32468	
2924	0	32804	32695	
2925	0	32782	32474	
2926	0	32760	32263	
2927	0	32772	32338	
2928	0	32792	32502	
2929	0	32884	32647	
2930	0	32752	32492	
2931	0	32692	32519	
2932	0	32830	32487	
2933	0	32856	32124	
2934	0	32799	32244	
2935	0	32756	32486	
2936	0	32879	32388	
2937	0	32780	32186	
2938	0	32842	32499	
2939	0	32820	32561	
2940	0	32794	32348	
2941	0	32850	32378	
2942	0	32816	32698	
2943	0	32752	32343	
2944	0	32792	32207	
2945	0	32820	32479	
2946	0	32788	32564	
2947	0	32740	32307	
2948	0	32836	32193	
2949	0	32800	32263	
2950	0	32820	32564	
2951	0	32868	32627	
2952	0	32754	32287	
2953	0	32770	32139	
2954	0	32750	32495	
2955	0	32808	32583	
2956	0	32728	32263	
2957	0	32760	32218	
2958	0	32828	32302	
2959	0	32802	32423	
2960	0	32847	32703	
2961	0	32866	32672	
2962	0	32884	32358	
2963	0	32800	32289	
2964	0	32736	32343	
2965	0	32862	32647	
2966	0	32784	32551	
2967	0	32710	32298	
2968	0	32778	32180	
2969	0	32800	32369	
2970	0	32832	32662	
2971	0	32842	32622	
2972	0	32836	32255	
2973	0	32836	32303	
2974	0	32852	32379	
2975	0	32816	32659	
2976	0	32782	32487	
2977	0	32756	32126	
2978	0	32790	32415	
2979	0	32772	32679	
2980	0	32774	32465	
2981	0	32812	32245	
2982	0	32798	32316	
2983	0	32874	32659	
2984	0	32924	32519	
2985	0	32772	32164	
2986	0	32844	32263	
2987	0	32720	32707	
2988	0	32726	32604	
2989	0	32788	32294	
2990	0	32816	32202	
2991	0	32849	32323	
2992	0	32832	32519	
2993	0	32808	32667	
2994	0	32837	32540	
2995	0	32772	32236	
2996	0	32855	32132	
2997	0	32816	32359	
2998	0	32876	32535	
2999	0	32732	32671	
3000	0	32788	32519	
3001	0	32806	32168	
3002	0	32840	32263	
3003	0	32784	32491	
3004	0	32760	32679	
3005	0	32744	32612	
3006	0	32748	32558	
3007	0	32840	32252	
3008	0	32852	32374	
3009	0	32804	32462	
3010	0	32804	32688	
3011	0	32782	32567	
3012	0	32820	32323	
3013	0	32752	32219	
3014	0	32804	32255	
3015	0	32760	32621	
3016	0	32768	32559	
3017	0	32774	32514	
3018	0	32801	32489	
3019	0	32880	32230	
3020	0	32826	32324	
3021	0	32630	32451	
3022	0	32810	32592	
3023	0	32828	32647	
3024	0	32888	32439	
3025	0	32772	32223	
3026	0	32968	32335	
3027	0	32924	32709	
3028	0	32836	32677	
3029	0	32684	32374	
3030	0	32736	32166	
3031	0	32884	32348	
3032	0	32822	32404	
3033	0	32804	32340	
3034	0	32672	32188	
3035	0	32790	32407	
3036	0	32822	32687	
3037	0	32866	32519	
3038	0	32800	32223	
3039	0	32816	32318	
3040	0	32780	32683	
3041	0	32822	32572	
3042	0	32760	32247	
3043	0	32764	32263	
3044	0	32888	32439	
3045	0	32856	32627	
3046	0	32750	32370	
3047	0	32837	32220	
3048	0	32824	32294	
3049	0	32775	32452	
3050	0	32747	32630	
3051	0	32848	32443	
3052	0	32766	32181	
3053	0	32796	32375	
3054	0	32788	32439	
3055	0	32792	32660	
3056	0	32732	32455	
3057	0	32800	32326	
3058	0	32812	32207	
3059	0	32796	32423	
3060	0	32775	32553	
3061	0	32802	32554	
3062	0	32812	32499	
3063	0	32838	32423	
3064	0	32814	32399	
3065	0	32817	32258	
3066	0	32760	32183	
3067	0	32806	32320	
3068	0	32792	32436	
3069	0	32788	32732	
3070	0	32784	32583	
3071	0	32852	32286	
3072	0	32829	32311	
3073	0	32790	32430	
3074	0	32824	32647	
3075	0	32812	32559	
3076	0	32756	32442	
3077	0	32878	32199	
3078	0	32806	32263	
3079	0	32751	32333	
3080	0	32758	32630	
3081	0	32782	32599	
3082	0	32792	32666	
3083	0	32794	32624	
3084	0	32764	32359	
3085	0	32871	32231	
3086	0	32864	32263	
3087	0	32840	32570	
3088	0	32804	32519	
3089	0	32856	32503	
3090	0	32774	32167	
3091	0	32860	32383	
3092	0	32844	32510	
3093	0	32794	32527	
3094	0	32860	32618	
3095	0	32732	32351	
3096	0	32722	32287	
3097	0	32742	32599	
3098	0	32760	32431	
3099	0	32780	32249	
3100	0	32770	32629	
3101	0	32828	32443	
3102	0	32769	32199	
3103	0	32748	32647	
3104	0	32828	32587	
3105	0	32894	32623	
3106	0	32764	32572	
3107	0	32812	32661	
3108	0	32790	32624	
3109	0	32780	32647	
3110	0	32756	32583	
3111	0	32754	32647	
3112	0	32826	32575	
3113	0	32884	32551	
3114	0	32876	32511	
3115	0	32775	32391	
3116	0	32874	32214	
3117	0	32800	32300	
3118	0	32807	32465	
3119	0	32672	32626	
3120	0	32750	32586	
3121	0	32750	32471	
3122	0	32736	32295	
3123	0	32804	32187	
3124	0	32864	32263	
3125	0	32736	32618	
3126	0	32680	32555	
3127	0	32726	32135	
3128	0	32926	32518	
3129	0	32908	32349	
3130	0	32912	32189	
3131	0	32868	32263	
3132	0	32886	32399	
3133	0	32864	32558	
3134	0	32856	32663	
3135	0	32775	32414	
3136	0	32732	32133	
3137	0	32820	32278	
3138	0	32880	32463	
3139	0	32808	32635	
3140	0	32764	32359	
3141	0	32672	32236	
3142	0	32718	32202	
3143	0	32788	32311	
3144	0	32832	32387	
3145	0	32862	32606	
3146	0	32756	32687	
3147	0	32823	32671	
3148	0	32794	32711	
3149	0	32788	32626	
3150	0	32840	32555	
3151	0	32765	32391	
3152	0	32782	32303	
3153	0	32852	32206	
3154	0	32761	32199	
3155	0	32814	32255	
3156	0	32794	32311	
3157	0	32848	32347	
3158	0	32767	32625	
3159	0	32791	32566	
3160	0	32716	32487	
3161	0	32868	32363	
3162	0	32844	32396	
3163	0	32844	32639	
3164	0	32780	32375	
3165	0	32831	32330	
3166	0	32798	32623	
3167	0	32862	32423	
3168	0	32760	32191	
3169	0	32732	32533	
3170	0	32750	32374	
3171	0	32800	32199	
3172	0	32822	32574	
3173	0	32769	32375	
3174	0	32812	32317	
3175	0	32862	32676	
3176	0	32822	32311	
3177	0	32852	32364	
3178	0	32852	32434	
3179	0	32801	32646	
3180	0	32756	32594	
3181	0	32748	32399	
3182	0	32788	32203	
3183	0	32890	32514	
3184	0	32784	32148	
3185	0	32724	32199	
3186	0	32692	32582	
3187	0	32812	32263	
3188	0	32964	32546	
3189	0	32732	32791	
3190	0	32930	32415	
3191	0	32844	32823	
3192	0	32840	32377	
3193	0	32848	32332	
3194	0	32876	32583	
3195	0	32806	32199	
3196	0	32684	32414	
3197	0	32740	32415	
3198	0	32756	32287	
3199	0	32628	32203	
3200	0	32722	32192	
3201	0	32732	32191	
3202	0	32808	32359	
3203	0	32913	32436	
3204	0	32848	32530	
3205	0	32864	32763	
3206	0	32784	32710	
3207	0	32832	32702	
3208	0	32828	32637	
3209	0	32840	32451	
3210	0	32786	32316	
3211	0	32842	32123	
3212	0	32860	32263	
3213	0	32761	32399	
3214	0	32744	32546	
3215	0	32740	32358	
3216	0	32836	32123	
3217	0	32920	32230	
3218	0	32775	32459	
3219	0	32772	32699	
3220	0	32780	32476	
3221	0	32788	32247	
3222	0	32784	32241	
3223	0	32800	32359	
3224	0	32752	32494	
3225	0	32741	32671	
3226	0	32754	32162	
3227	0	32690	32502	
3228	0	32813	32629	
3229	0	32836	32372	
3230	0	32794	32159	
3231	0	32804	32490	
3232	0	32892	32756	
3233	0	32840	32407	
3234	0	32776	32167	
3235	0	32798	32404	
3236	0	32783	32458	
3237	0	32797	32155	
3238	0	32833	32436	
3239	0	32810	32668	
3240	0	32874	32491	
3241	0	32692	32166	
3242	0	32790	32261	
3243	0	32810	32581	
3244	0	32782	32535	
3245	0	32804	32215	
3246	0	32848	32469	
3247	0	32844	32603	
3248	0	32773	32186	
3249	0	32797	32391	
3250	0	32784	32614	
3251	0	32770	32231	
3252	0	32720	32252	
3253	0	32796	32594	
3254	0	32886	32572	
3255	0	32900	32231	
3256	0	32810	32303	
3257	0	32888	32511	
3258	0	32778	32623	
3259	0	32760	32380	
3260	0	32782	32196	
3261	0	32836	32418	
3262	0	32778	32611	
3263	0	32755	32492	
3264	0	32785	32335	
3265	0	32830	32503	
3266	0	32736	32414	
3267	0	32764	32199	
3268	0	32786	32494	
3269	0	32724	32645	
3270	0	32822	32613	
3271	0	32872	32359	
3272	0	32876	32311	
3273	0	32804	32244	
3274	0	32816	32455	
3275	0	32823	32622	
3276	0	32732	32382	
3277	0	32724	32186	
3278	0	32954	32206	
3279	0	32868	32406	
3280	0	32876	32506	
3281	0	32804	32623	
3282	0	32740	32723	
3283	0	32704	32735	
3284	0	32802	32375	
3285	0	32828	32391	
3286	0	32740	32655	
3287	0	32780	32628	
3288	0	32848	32206	
3289	0	32734	32263	
3290	0	32858	32641	
3291	0	32852	32550	
3292	0	32764	32350	
3293	0	32807	32263	
3294	0	32790	32228	
3295	0	32846	32086	
3296	0	32804	32599	
3297	0	32825	32429	
3298	0	32780	32285	
3299	0	32752	32164	
3300	0	32769	32334	
3301	0	32820	32559	
3302	0	32800	32655	
3303	0	32858	32519	
3304	0	32729	32226	
3305	0	32798	32220	
3306	0	32816	32449	
3307	0	32708	32558	
3308	0	32856	32311	
3309	0	32816	32071	
3310	0	32846	32687	
3311	0	32854	32548	
3312	0	32917	32230	
3313	0	32814	32366	
3314	0	32724	32500	
3315	0	32732	32734	
3316	0	32772	32263	
3317	0	32820	32244	
3318	0	32852	32544	
3319	0	32868	32386	
3320	0	32807	32199	
3321	0	32768	32647	
3322	0	32730	32519	
3323	0	32842	32140	
3324	0	32805	32364	
3325	0	32766	32775	
3326	0	32802	32471	
3327	0	32832	32285	
3328	0	32834	32654	
3329	0	32838	32431	
3330	0	32808	32178	
3331	0	32746	32383	
3332	0	32836	32676	
3333	0	32756	32303	
3334	0	32784	32414	
3335	0	32740	32676	
3336	0	32766	32540	
3337	0	32749	32214	
3338	0	32816	32391	
3339	0	32761	32615	
3340	0	32824	32465	
3341	0	32872	32113	
3342	0	32826	32277	
3343	0	32804	32622	
3344	0	32786	32630	
3345	0	32800	32663	
3346	0	32864	32622	
3347	0	32704	32367	
3348	0	32808	32198	
3349	0	32836	32239	
3350	0	32710	32371	
3351	0	32826	32596	
3352	0	32740	32599	
3353	0	32728	32439	
3354	0	32916	32358	
3355	0	32800	32215	
3356	0	32806	32351	
3357	0	32832	32647	
3358	0	32740	32647	
3359	0	32790	32711	
3360	0	32832	32349	
3361	0	32772	32188	
3362	0	32778	32672	
3363	0	32784	32592	
3364	0	32797	32147	
3365	0	32786	32460	
3366	0	32884	32599	
3367	0	32806	32347	
3368	0	32770	32214	
3369	0	32836	32594	
3370	0	32756	32532	
3371	0	32748	32244	
3372	0	32774	32314	
3373	0	32824	32703	
3374	0	32764	32506	
3375	0	32696	32287	
3376	0	32836	32583	
3377	0	32828	32639	
3378	0	32900	32248	
3379	0	32928	32324	
3380	0	32848	32679	
3381	0	32928	32495	
3382	0	32752	32293	
3383	0	32800	32447	
3384	0	32744	32596	
3385	0	32748	32483	
3386	0	32744	32111	
3387	0	32744	32007	
3388	0	32808	32300	
3389	0	32792	32554	
3390	0	32826	32671	
3391	0	32780	32599	
3392	0	32856	32647	
3393	0	32854	32519	
3394	0	32924	32316	
3395	0	32784	32311	
3396	0	32740	32375	
3397	0	32772	32452	
3398	0	32917	32615	
3399	0	32858	32632	
3400	0	32860	32647	
3401	0	32772	32335	
3402	0	32752	32231	
3403	0	32774	32343	
3404	0	32840	32627	
3405	0	32790	32630	
3406	0	32668	32501	
3407	0	32816	32295	
3408	0	32882	32309	
3409	0	32788	32310	
3410	0	32824	32479	
3411	0	32724	32646	
3412	0	32788	32647	
3413	0	32878	32672	
3414	0	32782	32506	
3415	0	32804	32231	
3416	0	32824	32355	
3417	0	32836	32588	
3418	0	32724	32352	
3419	0	32782	32167	
3420	0	32729	32509	
3421	0	32728	32607	
3422	0	32820	32298	
3423	0	32800	32251	
3424	0	32740	32510	
3425	0	32816	32670	
3426	0	32734	32551	
3427	0	32834	32387	
3428	0	32788	32140	
3429	0	32708	32399	
3430	0	32804	32215	
3431	0	32858	32159	
3432	0	32776	32095	
3433	0	32924	32239	
3434	0	32846	32220	
3435	0	32830	32423	
3436	0	32820	32484	
3437	0	32800	32699	
3438	0	32832	32550	
3439	0	32844	32319	
3440	0	32769	32547	
3441	0	32856	32620	
3442	0	32788	32567	
3443	0	32700	32239	
3444	0	32778	32367	
3445	0	32798	32599	
3446	0	32846	32500	
3447	0	32744	32123	
3448	0	32720	32371	
3449	0	32784	32508	
3450	0	32708	32192	
3451	0	32789	32354	
3452	0	32766	32662	
3453	0	32872	32391	
3454	0	32838	32326	
3455	0	32772	32471	
3456	0	32764	32654	
3457	0	32842	32250	
3458	0	32894	32407	
3459	0	32834	32661	
3460	0	32790	32295	
3461	0	32780	32356	
3462	0	32742	32746	
3463	0	32740	32391	
3464	0	32788	32389	
3465	0	32760	32583	
3466	0	32844	32263	
3467	0	32856	32255	
3468	0	32772	32622	
3469	0	32720	32622	
3470	0	32775	32615	
3471	0	32841	32450	
3472	0	32828	32660	
3473	0	32800	32295	
3474	0	32764	32293	
3475	0	32768	32614	
3476	0	32794	32383	
3477	0	32798	32202	
3478	0	32892	32646	
3479	0	32780	32548	
3480	0	32842	32354	
3481	0	32864	32407	
3482	0	32818	32547	
3483	0	32796	32622	
3484	0	32872	32445	
3485	0	32792	32263	
3486	0	32704	32167	
3487	0	32796	32106	
3488	0	32786	32254	
3489	0	32780	32351	
3490	0	32856	32535	
3491	0	32680	32499	
3492	0	32732	32212	
3493	0	32887	32300	
3494	0	32868	32263	
3495	0	32884	32581	
3496	0	32756	32519	
3497	0	32884	32114	
3498	0	32780	32454	
3499	0	32860	32791	
3500	0	32720	32465	
3501	0	32748	32199	
3502	0	32752	32407	
3503	0	32772	32599	
3504	0	32823	32391	
3505	0	32775	32182	
3506	0	32758	32604	
3507	0	32784	32659	
3508	0	32805	32255	
3509	0	32840	32249	
3510	0	32832	32546	
3511	0	32769	32604	
3512	0	32796	32451	
3513	0	32708	32131	
3514	0	32775	32135	
3515	0	32752	32327	
3516	0	32834	32686	
3517	0	32781	32598	
3518	0	32782	32215	
3519	0	32831	32263	
3520	0	32802	32535	
3521	0	32812	32647	
3522	0	32704	32391	
3523	0	32836	32223	
3524	0	32812	32439	
3525	0	32778	32679	
3526	0	32776	32375	
3527	0	32860	32183	
3528	0	32812	32385	
3529	0	32694	32675	
3530	0	32756	32647	
3531	0	32804	32380	
3532	0	32788	32199	
3533	0	32730	32194	
3534	0	32781	32503	
3535	0	32781	32675	
3536	0	32868	32655	
3537	0	32926	32414	
3538	0	32878	32302	
3539	0	32740	32141	
3540	0	32712	32217	
3541	0	32822	32418	
3542	0	32748	32719	
3543	0	32826	32332	
3544	0	32836	32701	
3545	0	32798	32215	
3546	0	32756	32375	
3547	0	32773	32623	
3548	0	32757	32119	
3549	0	32714	32439	
3550	0	32804	32742	
3551	0	32744	32230	
3552	0	32712	32519	
3553	0	32792	32746	
3554	0	32757	32263	
3555	0	32848	32558	
3556	0	32848	32687	
3557	0	32706	32279	
3558	0	32844	32227	
3559	0	32742	32109	
3560	0	32728	31879	
3561	0	32820	32042	
3562	0	32814	32281	
3563	0	32834	32631	
3564	0	32772	32647	
3565	0	32832	32550	
3566	0	32785	32362	
3567	0	32668	32198	
3568	0	32810	32327	
3569	0	32840	32391	
3570	0	32942	32484	
3571	0	32890	32716	
3572	0	32876	32695	
3573	0	32876	32711	
3574	0	32872	32698	
3575	0	32960	32659	
3576	0	32938	32591	
3577	0	32964	32543	
3578	0	33028	32415	
3579	0	33000	32263	
3580	0	33028	32198	
3581	0	32896	32327	
3582	0	32904	32443	
3583	0	32780	32634	
3584	0	32774	32300	
3585	0	32817	32263	
3586	0	32736	32687	
3587	0	32648	32633	
3588	0	32580	32611	
3589	0	32628	32566	
3590	0	32532	32687	
3591	0	32620	32327	
3592	0	32736	32431	
3593	0	32700	32574	
3594	0	32726	32278	
3595	0	32794	32303	
3596	0	32772	32305	
3597	0	32710	32396	
3598	0	32756	32505	
3599	0	32822	32671	
3600	0	32852	32647	
3601	0	32984	32594	
3602	0	32896	32512	
3603	0	32848	32371	
3604	0	32810	32158	
3605	0	32814	32186	
3606	0	32798	32280	
3607	0	32832	32263	
3608	0	32756	32538	
3609	0	32824	32448	
3610	0	32742	32196	
3611	0	32881	32396	
3612	0	32824	32679	
3613	0	32796	32454	
3614	0	32816	32207	
3615	0	32768	32319	
3616	0	32746	32405	
3617	0	32772	32191	
3618	0	32788	32414	
3619	0	32808	32606	
3620	0	32844	32263	
3621	0	32816	32308	
3622	0	32832	32519	
3623	0	32812	32623	
3624	0	32864	32410	
3625	0	32751	32182	
3626	0	32804	32634	
3627	0	32808	32663	
3628	0	32818	32260	
3629	0	32820	32305	
3630	0	32800	32286	
3631	0	32756	32508	
3632	0	32772	32623	
3633	0	32748	32535	
3634	0	32768	32439	
3635	0	32730	32278	
3636	0	32732	32173	
3637	0	32826	32357	
3638	0	32892	32660	
3639	0	32810	32565	
3640	0	32832	32316	
3641	0	32856	32324	
3642	0	32839	32628	
3643	0	32798	32535	
3644	0	32708	32199	
3645	0	32750	32372	
3646	0	32812	32700	
3647	0	32852	32604	
3648	0	32776	32332	
3649	0	32794	32263	
3650	0	32782	32290	
3651	0	32798	32391	
3652	0	32828	32647	
3653	0	32752	32555	
3654	0	32708	32283	
3655	0	32710	32263	
3656	0	32764	32391	
3657	0	32814	32615	
3658	0	32800	32239	
3659	0	32785	32327	
3660	0	32646	32311	
3661	0	32706	32463	
3662	0	32744	32499	
3663	0	32734	32519	
3664	0	32797	32510	
3665	0	32816	32263	
3666	0	32692	32351	
3667	0	32798	32717	
3668	0	32620	32535	
3669	0	32612	32051	
3670	0	32602	32163	
3671	0	32822	32463	
3672	0	32788	32636	
3673	0	32916	32600	
3674	0	33106	32412	
3675	0	33006	32302	
3676	0	33040	32411	
3677	0	33032	32660	
3678	0	33028	32629	
3679	0	32986	32391	
3680	0	33018	32111	
3681	0	33014	32295	
3682	0	33038	32518	
3683	0	33081	32462	
3684	0	33078	32111	
3685	0	33188	32366	
3686	0	33189	32603	
3687	0	33228	32459	
3688	0	33132	32166	
3689	0	33176	32445	
3690	0	33082	32647	
3691	0	33088	32423	
3692	0	33034	32122	
3693	0	32788	32455	
3694	0	32752	32767	
3695	0	32728	32558	
3696	0	32704	32423	
3697	0	32932	32263	
3698	0	32896	32316	
3699	0	32820	32471	
3700	0	32656	32643	
3701	0	32500	32367	
3702	0	32460	32623	
3703	0	32255	32527	
3704	0	32212	32599	
3705	0	32204	32448	
3706	0	32244	32214	
3707	0	32252	32674	
3708	0	32260	32572	
3709	0	32276	32227	
3710	0	32350	32525	
3711	0	32706	32571	
3712	0	32664	32290	
3713	0	32652	32260	
3714	0	32554	32330	
3715	0	32504	32479	
3716	0	32492	32647	
3717	0	32497	32622	
3718	0	32468	32510	
3719	0	32496	32298	
3720	0	32702	32299	
3721	0	32846	32613	
3722	0	32824	32571	
3723	0	32879	32556	
3724	0	32716	32325	
3725	0	32756	32167	
3726	0	32976	32263	
3727	0	33050	32516	
3728	0	33060	32607	
3729	0	33184	32586	
3730	0	33052	32295	
3731	0	33084	32354	
3732	0	33064	32441	
3733	0	33000	32685	
3734	0	32974	32599	
3735	0	32924	32615	
3736	0	33056	32364	
3737	0	32932	32239	
3738	0	32948	32519	
3739	0	32910	32575	
3740	0	32862	32377	
3741	0	32780	32190	
3742	0	32854	32172	
3743	0	32849	32263	
3744	0	32720	32511	
3745	0	32785	32571	
3746	0	32830	32163	
3747	0	32734	32246	
3748	0	32804	32476	
3749	0	32718	32312	
3750	0	32744	32243	
3751	0	32928	32349	
3752	0	32912	32707	
3753	0	32862	32527	
3754	0	32898	32228	
3755	0	32860	32391	
3756	0	32764	32116	
3757	0	32804	32529	
3758	0	32796	32442	
3759	0	32794	32258	
3760	0	32810	32219	
3761	0	32816	32668	
3762	0	32844	32647	
3763	0	32846	32223	
3764	0	32740	32463	
3765	0	32722	32602	
3766	0	32865	32175	
3767	0	32752	32479	
3768	0	32832	32406	
3769	0	32796	32135	
3770	0	32783	32340	
3771	0	32726	32534	
3772	0	32812	32573	
3773	0	32928	32686	
3774	0	32820	32335	
3775	0	32772	32199	
3776	0	32904	32502	
3777	0	32800	32647	
3778	0	32735	32387	
3779	0	32724	32207	
3780	0	32772	32318	
3781	0	32848	32646	
3782	0	32826	32687	
3783	0	32719	32367	
3784	0	32804	32204	
3785	0	32756	32449	
3786	0	32790	32679	
3787	0	32705	32655	
3788	0	32834	32436	
3789	0	32846	32730	
3790	0	32824	32492	
3791	0	32818	32345	
3792	0	32800	32706	
3793	0	32740	32434	
3794	0	32788	32216	
3795	0	32758	32487	
3796	0	32802	32170	
3797	0	32865	32059	
3798	0	32800	32356	
3799	0	32824	32559	
3800	0	32804	32239	
3801	0	32840	32342	
3802	0	32692	32647	
3803	0	32762	32535	
3804	0	32790	32252	
3805	0	32820	32451	
3806	0	32830	32648	
3807	0	32940	32406	
3808	0	32742	32316	
3809	0	32812	32742	
3810	0	32854	32591	
3811	0	32718	32228	
3812	0	32794	32325	
3813	0	32648	32454	
3814	0	32760	32647	
3815	0	32814	32672	
3816	0	32894	32615	
3817	0	32820	32281	
3818	0	32792	32194	
3819	0	32816	32391	
3820	0	32838	32684	
3821	0	32800	32628	
3822	0	32788	32490	
3823	0	32815	32307	
3824	0	32836	32263	
3825	0	32796	32483	
3826	0	32790	32619	
3827	0	32794	32415	
3828	0	32748	32115	
3829	0	32770	32182	
3830	0	32748	32382	
3831	0	32772	32579	
3832	0	32830	32199	
3833	0	32896	32322	
3834	0	32824	32666	
3835	0	32836	32551	
3836	0	32826	32239	
3837	0	32845	32325	
3838	0	32840	32628	
3839	0	32768	32588	
3840	0	32740	32260	
3841	0	32796	32263	
3842	0	32788	32316	
3843	0	32796	32506	
3844	0	32804	32551	
3845	0	32878	32387	
3846	0	32808	32340	
3847	0	32868	32254	
3848	0	32810	32639	
3849	0	32832	32751	
3850	0	32782	32389	
3851	0	32746	32239	
3852	0	32840	32239	
3853	0	32718	32276	
3854	0	32748	32607	
3855	0	32772	32655	
3856	0	32800	32376	
3857	0	32817	32183	
3858	0	32830	32567	
3859	0	32775	32599	
3860	0	32850	32303	
3861	0	32870	32341	
3862	0	32761	32668	
3863	0	32732	32287	
3864	0	32896	32279	
3865	0	32800	32495	
3866	0	32796	32351	
3867	0	32786	32263	
3868	0	32792	32539	
3869	0	32854	32711	
3870	0	32778	32207	
3871	0	32876	32519	
3872	0	32824	32479	
3873	0	32750	32223	
3874	0	32764	32719	
3875	0	32872	32737	
3876	0	32798	32675	
3877	0	32848	32402	
3878	0	32742	32047	
3879	0	32802	32135	
3880	0	32864	32274	
3881	0	32796	32487	
3882	0	32800	32623	
3883	0	32622	32615	
3884	0	32856	32624	
3885	0	32855	32383	
3886	0	32777	32310	
3887	0	32781	32199	
3888	0	32759	32170	
3889	0	32768	32247	
3890	0	32798	32397	
3891	0	32804	32439	
3892	0	32801	32502	
3893	0	32756	32636	
3894	0	32818	32602	
3895	0	32794	32631	
3896	0	32760	32452	
3897	0	32750	32177	
3898	0	32860	32620	
3899	0	32892	32508	
3900	0	32876	32143	
3901	0	32889	32519	
3902	0	32772	32615	
3903	0	32808	32346	
3904	0	32864	32206	
3905	0	32704	32371	
3906	0	32737	32671	
3907	0	32828	32620	
3908	0	32764	32444	
3909	0	32828	32263	
3910	0	32932	32446	
3911	0	32845	32655	
3912	0	32774	32630	
3913	0	32756	32583	
3914	0	32746	32252	
3915	0	32774	32133	
3916	0	32766	32287	
3917	0	32790	32399	
3918	0	32814	32181	
3919	0	32888	32573	
3920	0	32760	32482	
3921	0	32728	32172	
3922	0	32735	32159	
3923	0	32860	32582	
3924	0	32814	32599	
3925	0	32876	32215	
3926	0	32736	32156	
3927	0	32844	32375	
3928	0	32800	32247	
3929	0	32832	32133	
3930	0	32804	32223	
3931	0	32760	32359	
3932	0	32820	32474	
3933	0	32764	32700	
3934	0	32700	32625	
3935	0	32860	32487	
3936	0	32782	32295	
3937	0	32852	32230	
3938	0	32840	32191	
3939	0	32828	32285	
3940	0	32788	32302	
3941	0	32750	32358	
3942	0	32804	32487	
3943	0	32768	32603	
3944	0	32766	32645	
3945	0	32814	32572	
3946	0	32810	32555	
3947	0	32822	32391	
3948	0	32800	32263	
3949	0	32816	32149	
3950	0	32757	32310	
3951	0	32868	32433	
3952	0	32804	32715	
3953	0	32740	32466	
3954	0	32800	32196	
3955	0	32732	32342	
3956	0	32756	32621	
3957	0	32818	32590	
3958	0	32800	32351	
3959	0	32788	32228	
3960	0	32858	32335	
3961	0	32824	32538	
3962	0	32824	32433	
3963	0	32772	32223	
3964	0	32888	32375	
3965	0	32804	32622	
3966	0	32760	32611	
3967	0	32801	32335	
3968	0	32704	32380	
3969	0	32820	32735	
3970	0	32812	32559	
3971	0	32788	32079	
3972	0	32817	32239	
3973	0	32812	32445	
3974	0	32766	32618	
3975	0	32788	32548	
3976	0	32895	32347	
3977	0	32860	32235	
3978	0	32728	32135	
3979	0	32767	32327	
3980	0	32828	32702	
3981	0	32854	32580	
3982	0	32856	32260	
3983	0	32818	32294	
3984	0	32815	32483	
3985	0	32821	32614	
3986	0	32768	32423	
3987	0	32788	32175	
3988	0	32796	32298	
3989	0	32848	32407	
3990	0	32782	32697	
3991	0	32752	32540	
3992	0	32793	32259	
3993	0	32764	32284	
3994	0	32772	32447	
3995	0	32800	32575	
3996	0	32816	32327	
3997	0	32800	32171	
3998	0	32804	32412	
3999	0	32774	32670	
4000	0	32720	32354	
4001	0	32756	32251	
4002	0	32784	32531	
4003	0	32916	32684	
4004	0	32918	32741	
4005	0	32924	32663	
4006	0	32852	32463	
4007	0	32748	32279	
4008	0	32852	32315	
4009	0	32884	32230	
4010	0	32806	32556	
4011	0	32714	32417	
4012	0	32732	32173	
4013	0	32738	32054	
4014	0	32744	32335	
4015	0	32761	32515	
4016	0	32773	32295	
4017	0	32820	32124	
4018	0	32762	32339	
4019	0	32780	32191	
4020	0	32838	32295	
4021	0	32898	32487	
4022	0	32664	32628	
4023	0	32748	32358	
4024	0	32876	32295	
4025	0	32758	32308	
4026	0	32795	32442	
4027	0	32792	32687	
4028	0	32814	32669	
4029	0	32780	32494	
4030	0	32772	32220	
4031	0	32780	32234	
4032	0	32772	32257	
4033	0	32816	32178	
4034	0	32816	32468	
4035	0	32828	32583	
4036	0	32792	32647	
4037	0	32806	32356	
4038	0	32834	32291	
4039	0	32788	32631	
4040	0	32844	32566	
4041	0	32848	32239	
4042	0	32809	32263	
4043	0	32812	32455	
4044	0	32768	32588	
4045	0	32644	32216	
4046	0	32708	32135	
4047	0	32868	32509	
4048	0	32847	32678	
4049	0	32924	32687	
4050	0	32809	32356	
4051	0	32900	32327	
4052	0	32976	32645	
4053	0	32858	32513	
4054	0	32758	32287	
4055	0	32864	32263	
4056	0	32840	32294	
4057	0	32735	32455	
4058	0	32832	32434	
4059	0	32740	32179	
4060	0	32756	32050	
4061	0	32780	32391	
4062	0	32768	32500	
4063	0	32700	32467	
4064	0	32694	32348	
4065	0	32844	32303	
4066	0	32888	32223	
4067	0	32804	32405	
4068	0	32808	32535	
4069	0	32928	32743	
4070	0	32890	32671	
4071	0	32849	32473	
4072	0	32734	32257	
4073	0	32821	32247	
4074	0	32739	32263	
4075	0	32775	32296	
4076	0	32800	32604	
4077	0	32824	32647	
4078	0	32775	32607	
4079	0	32798	32455	
4080	0	32792	32191	
4081	0	32790	32231	
4082	0	32863	32277	
4083	0	32838	32504	
4084	0	32775	32619	
4085	0	32846	32295	
4086	0	32740	32391	
4087	0	32752	32407	
4088	0	32864	32229	
4089	0	32834	32203	
4090	0	32780	32247	
4091	0	32720	32327	
4092	0	32800	32567	
4093	0	32814	32599	
4094	0	32744	32675	
4095	0	32761	32575	
4096	0	32815	32630	
4097	0	32860	32460	
4098	0	32804	32492	
4099	0	32840	32343	
4100	0	32788	32227	
4101	0	32832	32127	
4102	0	32780	32347	
4103	0	32804	32462	
4104	0	32734	32325	
4105	0	32736	32235	
4106	0	32784	32283	
4107	0	32730	32300	
4108	0	32748	32259	
4109	0	32888	32294	
4110	0	32842	32327	
4111	0	32760	32439	
4112	0	32804	32734	
4113	0	32902	32597	
4114	0	32796	32551	
4115	0	32816	32501	
4116	0	32748	32175	
4117	0	32804	32258	
4118	0	32775	32655	
4119	0	32681	32654	
4120	0	32692	32487	
4121	0	32854	32236	
4122	0	32824	32330	
4123	0	32898	32646	
4124	0	32766	32566	
4125	0	32816	32295	
4126	0	32772	32220	
4127	0	32665	32480	
4128	0	32740	32587	
4129	0	32914	32669	
4130	0	32828	32647	
4131	0	32814	32519	
4132	0	32886	32214	
4133	0	32783	32324	
4134	0	32740	32327	
4135	0	32758	32086	
4136	0	32756	32174	
4137	0	32870	32415	
4138	0	32736	32739	
4139	0	32740	32852	
4140	0	32768	32806	
4141	0	32768	32541	
4142	0	32784	32431	
4143	0	32770	32498	
4144	0	32860	32574	
4145	0	32876	32471	
4146	0	32848	32159	
4147	0	32816	32090	
4148	0	32754	31978	
4149	0	32832	31852	
4150	0	32844	32111	
4151	0	32804	32644	
4152	0	32772	32734	
4153	0	32796	32719	
4154	0	32775	32364	
4155	0	32878	32470	
4156	0	32780	32543	
4157	0	32704	32740	
4158	0	32740	32647	
4159	0	32868	32636	
4160	0	32932	32375	
4161	0	32812	32215	
4162	0	32846	32412	
4163	0	32804	32607	
4164	0	32786	32543	
4165	0	32754	32599	
4166	0	32794	32622	
4167	0	32876	32291	
4168	0	32838	32207	
4169	0	32848	32287	
4170	0	32815	32684	
4171	0	32788	32623	
4172	0	32772	32663	
4173	0	32749	32443	
4174	0	32719	32540	
4175	0	32852	32310	
4176	0	32820	32263	
4177	0	32782	32367	
4178	0	32798	32510	
4179	0	32838	32667	
4180	0	32808	32615	
4181	0	32796	32263	
4182	0	32800	32335	
4183	0	32794	32686	
4184	0	32772	32564	
4185	0	32824	32231	
4186	0	32853	32262	
4187	0	32846	32343	
4188	0	32876	32679	
4189	0	32904	32564	
4190	0	32788	32382	
4191	0	32672	32223	
4192	0	32798	32423	
4193	0	32748	32639	
4194	0	32848	32646	
4195	0	32852	32399	
4196	0	32768	32194	
4197	0	32774	32245	
4198	0	32874	32578	
4199	0	32736	32647	
4200	0	32808	32343	
4201	0	32874	32207	
4202	0	32856	32415	
4203	0	32832	32583	
4204	0	32817	32647	
4205	0	32768	32455	
4206	0	32783	32420	
4207	0	32746	32589	
4208	0	32716	32306	
4209	0	32772	32236	
4210	0	32800	32372	
4211	0	32824	32663	
4212	0	32798	32598	
4213	0	32820	32615	
4214	0	32734	32468	
4215	0	32744	32255	
4216	0	32656	32095	
4217	0	32880	32279	
4218	0	32922	32204	
4219	0	32788	32538	
4220	0	32804	32335	
4221	0	32800	32220	
4222	0	32900	32359	
4223	0	32798	32546	
4224	0	32828	32659	
4225	0	32786	32263	
4226	0	32794	32375	
4227	0	32798	32703	
4228	0	32792	32646	
4229	0	32785	32238	
4230	0	32796	32439	
4231	0	32780	32651	
4232	0	32834	32487	
4233	0	32858	32227	
4234	0	32704	32414	
4235	0	32764	32599	
4236	0	32796	32244	
4237	0	32750	32244	
4238	0	32888	32445	
4239	0	32828	32587	
4240	0	32853	32252	
4241	0	32815	32323	
4242	0	32677	32391	
4243	0	32830	32604	
4244	0	32874	32539	
4245	0	32884	32308	
4246	0	32868	32327	
4247	0	32868	32583	
4248	0	32816	32399	
4249	0	32804	32211	
4250	0	32834	32471	
4251	0	32728	32238	
4252	0	32740	32251	
4253	0	32800	32371	
4254	0	32792	32511	
4255	0	32722	32636	
4256	0	32766	32606	
4257	0	32816	32610	
4258	0	32757	32431	
4259	0	32844	32263	
4260	0	32860	32383	
4261	0	32694	32441	
4262	0	32710	32651	
4263	0	32730	32519	
4264	0	32812	32215	
4265	0	32818	32209	
4266	0	32754	32518	
4267	0	32760	32378	
4268	0	32775	32211	
4269	0	32812	32295	
4270	0	32736	32503	
4271	0	32784	32679	
4272	0	32868	32487	
4273	0	32878	32198	
4274	0	32884	32511	
4275	0	32860	32659	
4276	0	32780	32282	
4277	0	32812	32338	
4278	0	32800	32695	
4279	0	32758	32399	
4280	0	32796	32135	
4281	0	32740	32103	
4282	0	32780	32239	
4283	0	32714	32207	
4284	0	32852	32583	
4285	0	32894	32575	
4286	0	32808	32599	
4287	0	32780	32687	
4288	0	32838	32358	
4289	0	32881	32245	
4290	0	32840	32436	
4291	0	32881	32626	
4292	0	32820	32559	
4293	0	32757	32247	
4294	0	32756	32191	
4295	0	32832	32439	
4296	0	32762	32671	
4297	0	32820	32606	
4298	0	32764	32259	
4299	0	32736	32101	
4300	0	32704	32487	
4301	0	32888	32700	
4302	0	32786	32332	
4303	0	32876	32228	
4304	0	32820	32258	
4305	0	32792	32457	
4306	0	32783	32696	
4307	0	32894	32467	
4308	0	32804	32311	
4309	0	32817	32261	
4310	0	32824	32631	
4311	0	32730	32643	
4312	0	32830	32447	
4313	0	32828	32263	
4314	0	32764	32205	
4315	0	32760	32325	
4316	0	32770	32140	
4317	0	32724	32463	
4318	0	32792	32631	
4319	0	32800	32343	
4320	0	32760	32295	
4321	0	32836	32459	
4322	0	32758	32652	
4323	0	32820	32545	
4324	0	32820	32423	
4325	0	32824	32439	
4326	0	32906	32391	
4327	0	32801	32199	
4328	0	32804	32126	
4329	0	32725	32327	
4330	0	32849	32616	
4331	0	32766	32571	
4332	0	32800	32542	
4333	0	32752	32642	
4334	0	32836	32263	
4335	0	32846	32239	
4336	0	32775	32634	
4337	0	32840	32200	
4338	0	32806	32551	
4339	0	32852	32487	
4340	0	32852	32255	
4341	0	32906	32603	
4342	0	32852	32346	
4343	0	32814	32197	
4344	0	32772	32501	
4345	0	32788	32263	
4346	0	32775	32196	
4347	0	32734	32199	
4348	0	32786	32284	
4349	0	32756	32422	
4350	0	32716	32498	
4351	0	32844	32634	
4352	0	32744	32743	
4353	0	32766	32631	
4354	0	32792	32356	
4355	0	32730	32263	
4356	0	32788	32391	
4357	0	32740	32599	
4358	0	32804	32615	
4359	0	32726	32455	
4360	0	32728	32364	
4361	0	32599	32276	
4362	0	32728	32159	
4363	0	32764	32135	
4364	0	32810	32140	
4365	0	32834	32223	
4366	0	32888	32183	
4367	0	32928	32231	
4368	0	32796	32447	
4369	0	32840	32500	
4370	0	32944	32751	
4371	0	32709	32674	
4372	0	32738	32554	
4373	0	32782	32314	
4374	0	32772	32327	
4375	0	32784	32426	
4376	0	32800	32631	
4377	0	32856	32615	
4378	0	32848	32365	
4379	0	32938	32199	
4380	0	32946	32295	
4381	0	32876	32478	
4382	0	32892	32668	
4383	0	32944	32642	
4384	0	32878	32575	
4385	0	33018	32308	
4386	0	33021	32263	
4387	0	33040	32263	
4388	0	32964	32455	
4389	0	32974	32675	
4390	0	32860	32731	
4391	0	32761	32583	
4392	0	32760	32228	
4393	0	32738	32327	
4394	0	32744	32399	
4395	0	32648	32611	
4396	0	32620	32411	
4397	0	32676	32293	
4398	0	32684	32430	
4399	0	32688	32375	
4400	0	32628	32098	
4401	0	32784	32151	
4402	0	32636	32607	
4403	0	32672	32533	
4404	0	32716	32332	
4405	0	32676	32551	
4406	0	32796	32386	
4407	0	32796	32347	
4408	0	32840	32255	
4409	0	32876	32333	
4410	0	32853	32497	
4411	0	32884	32717	
4412	0	32790	32313	
4413	0	32756	32666	
4414	0	32690	32348	
4415	0	32792	32363	
4416	0	32888	32236	
4417	0	32871	32283	
4418	0	32711	32331	
4419	0	32848	32486	
4420	0	32828	32430	
4421	0	32900	32215	
4422	0	32842	32550	
4423	0	32752	32595	
4424	0	32800	32263	
4425	0	32800	32199	
4426	0	32842	32383	
4427	0	32842	32631	
4428	0	32768	32500	
4429	0	32780	32180	
4430	0	32748	32247	
4431	0	32748	32687	
4432	0	32855	32636	
4433	0	32894	32499	
4434	0	32868	32479	
4435	0	32865	32251	
4436	0	32812	32378	
4437	0	32768	32319	
4438	0	32714	32495	
4439	0	32775	32578	
4440	0	32772	32438	
4441	0	32792	32212	
4442	0	32720	32348	
4443	0	32826	32446	
4444	0	32841	32671	
4445	0	32880	32599	
4446	0	32712	32543	
4447	0	32704	32119	
4448	0	32704	32234	
4449	0	32820	32567	
4450	0	32716	32575	
4451	0	32762	32611	
4452	0	32788	32623	
4453	0	32718	32540	
4454	0	32804	32287	
4455	0	32842	32028	
4456	0	32846	32204	
4457	0	32881	32647	
4458	0	32818	32633	
4459	0	32823	32191	
4460	0	32796	32310	
4461	0	32720	32430	
4462	0	32770	32699	
4463	0	32760	32499	
4464	0	32806	32259	
4465	0	32796	32378	
4466	0	32868	32718	
4467	0	32732	32571	
4468	0	32708	32327	
4469	0	32664	32263	
4470	0	32620	32460	
4471	0	32836	32634	
4472	0	32737	32667	
4473	0	32781	32517	
4474	0	32760	32404	
4475	0	32648	32627	
4476	0	32688	32615	
4477	0	32706	32431	
4478	0	32766	32135	
4479	0	32929	32263	
4480	0	32982	32449	
4481	0	32972	32642	
4482	0	33170	32534	
4483	0	33064	32214	
4484	0	32992	32287	
4485	0	33076	32599	
4486	0	33146	32575	
4487	0	33006	32399	
4488	0	32977	32263	
4489	0	33078	32597	
4490	0	33036	32582	
4491	0	33092	32349	
4492	0	33038	32223	
4493	0	33177	32415	
4494	0	33200	32655	
4495	0	33216	32335	
4496	0	33116	32263	
4497	0	33154	32151	
4498	0	33060	32199	
4499	0	33124	32639	
4500	0	32828	32633	
4501	0	32706	32569	
4502	0	32788	32634	
4503	0	32962	32657	
4504	0	32876	32687	
4505	0	32684	32721	
4506	0	32770	32828	
4507	0	32621	32767	
4508	0	32508	32579	
4509	0	32324	32184	
4510	0	32244	32216	
4511	0	32216	32490	
4512	0	32156	32636	
4513	0	32268	32319	
4514	0	32239	32039	
4515	0	32192	32242	
4516	0	32492	32428	
4517	0	32482	32543	
4518	0	32396	32678	
4519	0	32318	32573	
4520	0	32294	32722	
4521	0	32320	32494	
4522	0	32336	32410	
4523	0	32390	32287	
4524	0	32632	32443	
4525	0	32700	32689	
4526	0	32852	32711	
4527	0	32784	32436	
4528	0	32804	32309	
4529	0	32958	32167	
4530	0	32920	32285	
4531	0	32808	32583	
4532	0	33002	32679	
4533	0	33016	32702	
4534	0	33094	32299	
4535	0	32988	32119	
4536	0	32932	32303	
4537	0	32892	32541	
4538	0	32936	32583	
4539	0	33026	32399	
4540	0	33050	32238	
4541	0	32954	32303	
4542	0	33038	32611	
4543	0	32952	32572	
4544	0	32962	32253	
4545	0	32730	32236	
4546	0	32845	32187	
4547	0	32804	32359	
4548	0	32828	32548	
4549	0	32846	32571	
4550	0	32860	32583	
4551	0	32820	32582	
4552	0	32742	32359	
4553	0	32838	32215	
4554	0	32860	32212	
4555	0	32846	32343	
4556	0	32855	32502	
4557	0	32820	32756	
4558	0	32808	32775	
4559	0	32751	32710	
4560	0	32752	32646	
4561	0	32824	32616	
4562	0	32984	32644	
4563	0	32796	32543	
4564	0	32780	32355	
4565	0	32774	32107	
4566	0	32814	32199	
4567	0	32830	32391	
4568	0	32732	32503	
4569	0	32730	32385	
4570	0	32858	32231	
4571	0	32804	32367	
4572	0	32836	32698	
4573	0	32740	32604	
4574	0	32828	32437	
4575	0	32864	32263	
4576	0	32804	32291	
4577	0	32764	32630	
4578	0	32784	32572	
4579	0	32796	32178	
4580	0	32862	32375	
4581	0	32812	32679	
4582	0	32808	32709	
4583	0	32828	32613	
4584	0	32800	32292	
4585	0	32812	32262	
4586	0	32852	32263	
4587	0	32736	32247	
4588	0	32844	32255	
4589	0	32760	32463	
4590	0	32676	32611	
4591	0	32862	32663	
4592	0	32886	32679	
4593	0	32836	32630	
4594	0	32839	32574	
4595	0	32900	32375	
4596	0	32752	32206	
4597	0	32800	32155	
4598	0	32808	32284	
4599	0	32830	32367	
4600	0	32766	32567	
4601	0	32806	32479	
4602	0	32832	32415	
4603	0	32788	32287	
4604	0	32828	32445	
4605	0	32846	32667	
4606	0	32814	32411	
4607	0	32830	32159	
4608	0	32849	32390	
4609	0	32784	32660	
4610	0	32704	32263	
4611	0	32716	32263	
4612	0	32774	32476	
4613	0	32830	32614	
4614	0	32814	32487	
4615	0	32808	32483	
4616	0	32802	32175	
4617	0	32837	32205	
4618	0	32790	32357	
4619	0	32740	32604	
4620	0	32756	32599	
4621	0	32788	32352	
4622	0	32768	32358	
4623	0	32782	32682	
4624	0	32806	32543	
4625	0	32842	32199	
4626	0	32788	32285	
4627	0	32868	32399	
4628	0	32764	32663	
4629	0	32820	32487	
4630	0	32808	32125	
4631	0	32828	32122	
4632	0	32758	32092	
4633	0	32812	32198	
4634	0	32810	32288	
4635	0	32746	32644	
4636	0	32788	32684	
4637	0	32816	32484	
4638	0	32836	32244	
4639	0	32836	32287	
4640	0	32836	32339	
4641	0	32894	32319	
4642	0	32818	32344	
4643	0	32828	32647	
4644	0	32804	32647	
4645	0	32817	32294	
4646	0	32761	32199	
4647	0	32820	32647	
4648	0	32776	32567	
4649	0	32788	32372	
4650	0	32768	32327	
4651	0	32876	32666	
4652	0	32720	32630	
4653	0	32716	32287	
4654	0	32824	32196	
4655	0	32864	32415	
4656	0	32775	32479	
4657	0	32852	32391	
4658	0	32832	32224	
4659	0	32796	32540	
4660	0	32783	32638	
4661	0	32740	32217	
4662	0	32712	32262	
4663	0	32868	32567	
4664	0	32816	32613	
4665	0	32784	32491	
4666	0	32760	32678	
4667	0	32788	32663	
4668	0	32910	32615	
4669	0	32804	32532	
4670	0	32764	32419	
4671	0	32818	32263	
4672	0	32840	32295	
4673	0	32724	32239	
4674	0	32756	32298	
4675	0	32801	32399	
4676	0	32836	32455	
4677	0	32810	32748	
4678	0	32718	32658	
4679	0	32704	32643	
4680	0	32868	32639	
4681	0	32974	32647	
4682	0	32830	32519	
4683	0	32942	32287	
4684	0	32674	32255	
4685	0	32897	32365	
4686	0	32860	32350	
4687	0	32792	32686	
4688	0	32850	32890	
4689	0	32775	32640	
4690	0	32748	32516	
4691	0	32748	35884	
4692	0	32812	47188	
4693	0	32896	26718	
4694	0	32940	21710	
4695	0	32626	25677	
4696	0	32616	31892	
4697	0	32694	38716	
4698	0	32728	43580	
4699	0	32734	41728	
4700	0	32732	36292	
4701	0	32820	33632	
4702	0	32878	32838	
4703	0	32876	34194	
4704	0	32808	37052	
4705	0	33081	41928	
4706	0	33014	47386	
4707	0	33056	47594	
4708	0	32788	44422	
4709	0	32670	40436	
4710	0	32640	36279	
4711	0	32480	30861	
4712	0	32320	22792	
4713	0	32386	15905	
4714	0	32560	13588	
4715	0	32904	14988	
4716	0	33044	19631	
4717	0	33006	24903	
4718	0	33032	29002	
4719	0	32880	30727	
4720	0	32916	31230	
4721	0	32862	31183	
4722	0	32719	30775	
4723	0	32772	30581	
4724	0	32756	30401	
4725	0	32628	30282	
4726	0	32744	30298	
4727	0	32764	30154	
4728	0	32800	30268	
4729	0	32868	30396	
4730	0	32692	30631	
4731	0	32724	30943	
4732	0	32738	31103	
4733	0	32816	31271	
4734	0	32796	31439	
4735	0	32892	31709	
4736	0	32828	31985	
4737	0	33015	32676	
4738	0	32774	33375	
4739	0	32626	33839	
4740	0	32774	33746	
4741	0	32792	33286	
4742	0	32908	33535	
4743	0	32917	33394	
4744	0	32826	32949	
4745	0	32902	32572	
4746	0	32778	32646	
4747	0	32868	32759	
4748	0	33012	32668	
4749	0	32881	32683	
4750	0	32913	33130	
4751	0	32748	32814	
4752	0	32846	33335	
4753	0	32704	33135	
4754	0	32817	32183	
4755	0	32756	32090	
4756	0	32896	32199	
4757	0	32924	32514	
4758	0	32850	31936	
4759	0	32868	32647	
4760	0	32736	34003	
4761	0	32902	34402	
4762	0	32838	34332	
4763	0	32672	34343	
4764	0	32568	34373	
4765	0	32378	34374	
4766	0	32386	34055	
4767	0	32460	33543	
4768	0	32524	32987	
4769	0	32660	32576	
4770	0	32914	32682	
4771	0	33044	32700	
4772	0	32926	32710	
4773	0	32730	32775	
4774	0	32776	33527	
4775	0	32780	33763	
4776	0	32790	32967	
4777	0	32784	33532	
4778	0	32716	33861	
4779	0	32768	34692	
4780	0	32800	34463	
4781	0	32768	33689	
4782	0	32782	33471	
4783	0	32992	32199	
4784	0	33026	30959	
4785	0	33064	30790	
4786	0	33149	30608	
4787	0	33040	31253	
4788	0	32950	31255	
4789	0	32972	30524	
4790	0	32952	30286	
4791	0	32960	30188	
4792	0	33036	30100	
4793	0	33144	30855	
4794	0	33034	31974	
4795	0	32602	32219	
4796	0	32188	32143	
4797	0	32245	31862	
4798	0	32284	32148	
4799	0	32522	32338	
4800	0	32872	32281	
4801	0	33150	31971	
4802	0	32796	31948	
4803	0	32918	32359	
4804	0	33072	32940	
4805	0	32924	33513	
4806	0	32956	34052	
4807	0	32916	34257	
4808	0	32968	34726	
4809	0	32684	35071	
4810	0	32884	34695	
4811	0	32964	33909	
4812	0	32808	33493	
4813	0	32684	33355	
4814	0	32658	33124	
4815	0	32630	32702	
4816	0	32672	32439	
4817	0	32574	32510	
4818	0	32618	32222	
4819	0	32596	32062	
4820	0	32724	32603	
4821	0	32684	32870	
4822	0	32740	32287	
4823	0	32752	31751	
4824	0	32776	31316	
4825	0	32886	31210	
4826	0	32808	30996	
4827	0	32937	30954	
4828	0	32864	30849	
4829	0	32810	31092	
4830	0	32825	31294	
4831	0	32856	31563	
4832	0	32922	31904	
4833	0	32984	32255	
4834	0	32808	32502	
4835	0	32760	32707	
4836	0	32788	32804	
4837	0	32732	32874	
4838	0	32856	32974	
4839	0	32736	32840	
4840	0	32748	33030	
4841	0	32800	32918	
4842	0	32742	32756	
4843	0	32814	32743	
4844	0	32788	32693	
4845	0	32814	32606	
4846	0	32757	32742	
4847	0	32791	32701	
4848	0	32770	32667	
4849	0	32742	32567	
4850	0	32764	32636	
4851	0	32761	32436	
4852	0	32640	32391	
4853	0	32820	32387	
4854	0	32816	32053	
4855	0	32888	32191	
4856	0	32860	32039	
4857	0	32768	32038	
4858	0	32840	32355	
4859	0	32820	32263	
4860	0	32854	32159	
4861	0	32864	32335	
4862	0	32762	32357	
4863	0	32650	32486	
4864	0	32742	32303	
4865	0	32904	32439	
4866	0	32740	32163	
4867	0	32808	32142	
4868	0	32860	32423	
4869	0	32836	32388	
4870	0	32788	32330	
4871	0	32880	32671	
4872	0	32830	32616	
4873	0	32792	32477	
4874	0	32752	32661	
4875	0	32860	32948	
4876	0	32772	33240	
4877	0	32854	33318	
4878	0	32816	33078	
4879	0	32900	32747	
4880	0	32734	32698	
4881	0	32666	32775	
4882	0	32818	32707	
4883	0	32864	32945	
4884	0	32924	32892	
4885	0	32794	32940	
4886	0	32946	32947	
4887	0	32726	32004	
4888	0	32736	31771	
4889	0	32772	31233	
4890	0	32782	31220	
4891	0	32836	31659	
4892	0	32804	31658	
4893	0	32656	31678	
4894	0	32948	31722	
4895	0	32844	31971	
4896	0	32732	32519	
4897	0	32670	32279	
4898	0	32796	32287	
4899	0	32764	32135	
4900	0	32860	32285	
4901	0	32921	32839	
4902	0	32900	32839	
4903	0	32866	32690	
4904	0	32812	32631	
4905	0	32766	32614	
4906	0	32756	32052	
4907	0	32758	31707	
4908	0	32711	32020	
4909	0	32846	32687	
4910	0	32794	32639	
4911	0	32822	32511	
4912	0	32812	32555	
4913	0	32768	32482	
4914	0	32830	32603	
4915	0	32784	32575	
4916	0	32768	32746	
4917	0	32856	32940	
4918	0	32696	32693	
4919	0	32938	32755	
4920	0	32772	32959	
4921	0	32940	32698	
4922	0	32776	32391	
4923	0	32860	32740	
4924	0	32802	33107	
4925	0	32784	32895	
4926	0	32704	32759	
4927	0	32788	32831	
4928	0	32714	32935	
4929	0	32700	32807	
4930	0	32810	32170	
4931	0	32868	31526	
4932	0	32759	31442	
4933	0	32734	31479	
4934	0	32804	31916	
4935	0	32860	31870	
4936	0	32769	31967	
4937	0	32774	31907	
4938	0	32736	32234	
4939	0	32816	32543	
4940	0	32868	32687	
4941	0	32865	33055	
4942	0	32772	33255	
4943	0	32828	33382	
4944	0	32761	32646	
4945	0	32709	32084	
4946	0	32740	31658	
4947	0	32686	31863	
4948	0	32750	31604	
4949	0	32860	30759	
4950	0	32922	30392	
4951	0	32868	31060	
4952	0	32876	31751	
4953	0	32752	32099	
4954	0	32804	32359	
4955	0	32720	33007	
4956	0	32890	33372	
4957	0	32826	33523	
4958	0	32798	33405	
4959	0	32812	33183	
4960	0	32804	33095	
4961	0	32892	32923	
4962	0	32720	33124	
4963	0	32740	33315	
4964	0	32744	33338	
4965	0	32864	32867	
4966	0	32852	32870	
4967	0	32852	32879	
4968	0	32904	32414	
4969	0	32842	32647	
4970	0	32760	32839	
4971	0	32804	32403	
4972	0	32788	32755	
4973	0	32696	32502	
4974	0	32670	32262	
4975	0	32824	32292	
4976	0	32794	32263	
4977	0	32788	32231	
4978	0	32792	32133	
4979	0	32761	32229	
4980	0	32848	32447	
4981	0	32832	32542	
4982	0	32796	32596	
4983	0	32826	32635	
4984	0	32886	32612	
4985	0	32820	32558	
4986	0	32792	32450	
4987	0	32776	32471	
4988	0	32768	32459	
4989	0	32836	32484	
4990	0	32840	32517	
4991	0	32796	32391	
4992	0	32736	32135	
4993	0	32756	31970	
4994	0	32720	32019	
4995	0	32778	31824	
4996	0	32940	31783	
4997	0	32890	32116	
4998	0	32818	32105	
4999	0	32820	32261	
5000	0	32760	32207	
5001	0	32824	32519	
5002	0	32788	32638	
5003	0	32722	32684	
5004	0	32728	32615	
5005	0	32828	32483	
5006	0	32775	32180	
5007	0	32764	32215	
5008	0	32806	32519	
5009	0	32806	32661	
5010	0	32839	32228	
5011	0	32846	32721	
5012	0	32740	32386	
5013	0	32832	32556	
5014	0	32740	32804	
5015	0	32680	32329	
5016	0	32646	32709	
5017	0	32806	32420	
5018	0	32852	32022	
5019	0	32836	32276	
5020	0	32764	32166	
5021	0	32676	32135	
5022	0	32820	32700	
5023	0	32732	32532	
5024	0	32944	32255	
5025	0	32856	32371	
5026	0	32868	32350	
5027	0	32862	32644	
5028	0	32790	32894	
5029	0	32834	32652	
5030	0	32968	32311	
5031	0	32910	32368	
5032	0	32860	32038	
5033	0	32820	32012	
5034	0	32836	32239	
5035	0	32841	32512	
5036	0	32878	32135	
5037	0	32820	32263	
5038	0	32804	32403	
5039	0	32724	32636	
5040	0	32662	32875	
5041	0	32700	32927	
5042	0	32648	32823	
5043	0	32906	32342	
5044	0	32888	32151	
5045	0	32855	32070	
5046	0	32774	32247	
5047	0	32828	32181	
5048	0	32798	32007	
5049	0	32840	32116	
5050	0	33016	32124	
5051	0	32712	32084	
5052	0	32724	32262	
5053	0	32876	32607	
5054	0	32804	32679	
5055	0	32765	32807	
5056	0	32860	32606	
5057	0	32812	32495	
5058	0	32796	32335	
5059	0	32756	32122	
5060	0	32688	32261	
5061	0	32702	32551	
5062	0	32830	32527	
5063	0	32856	32663	
5064	0	32780	32455	
5065	0	32712	32527	
5066	0	32808	32535	
5067	0	32768	32383	
5068	0	32817	32462	
5069	0	32730	32327	
5070	0	32806	31911	
5071	0	32758	31959	
5072	0	32812	32391	
5073	0	32682	32630	
5074	0	32836	33030	
5075	0	32871	32970	
5076	0	32908	32687	
5077	0	32799	32335	
5078	0	32760	32375	
5079	0	32766	32615	
5080	0	32962	32237	
5081	0	32764	31908	
5082	0	32744	32039	
5083	0	32724	32391	
5084	0	32774	32485	
5085	0	32884	32903	
5086	0	32884	32855	
5087	0	32748	32711	
5088	0	32734	32439	
5089	0	32836	31958	
5090	0	32766	32014	
5091	0	32824	32214	
5092	0	32864	32286	
5093	0	32852	32127	
5094	0	32842	32135	
5095	0	32782	32183	
5096	0	32812	32561	
5097	0	32840	32205	
5098	0	32808	32199	
5099	0	32726	32310	
5100	0	32784	32318	
5101	0	32766	32030	
5102	0	32789	32036	
5103	0	32785	32421	
5104	0	32849	32792	
5105	0	32904	32754	
5106	0	32864	32511	
5107	0	32775	32484	
5108	0	32668	32589	
5109	0	32780	32852	
5110	0	32816	32895	
5111	0	32714	33058	
5112	0	32842	33556	
5113	0	32930	33658	
5114	0	32896	33511	
5115	0	32848	33091	
5116	0	32832	32180	
5117	0	32804	31346	
5118	0	32670	30312	
5119	0	32768	29922	
5120	0	32798	30508	
5121	0	32932	31275	
5122	0	32752	32102	
5123	0	32768	32924	
5124	0	32846	33154	
5125	0	32832	33312	
5126	0	32774	33358	
5127	0	32716	33054	
5128	0	32706	32615	
5129	0	32696	32388	
5130	0	32732	32755	
5131	0	32828	32735	
5132	0	32836	32335	
5133	0	32836	32256	
5134	0	32775	32038	
5135	0	32744	32095	
5136	0	32784	32499	
5137	0	32708	32722	
5138	0	32650	32668	
5139	0	32746	32836	
5140	0	32838	32734	
5141	0	32752	32710	
5142	0	32680	32655	
5143	0	32752	32606	
5144	0	32804	32468	
5145	0	32814	32253	
5146	0	32928	32231	
5147	0	32836	32399	
5148	0	32860	32234	
5149	0	32832	32207	
5150	0	32784	32449	
5151	0	32676	32292	
5152	0	32744	32647	
5153	0	32776	32335	
5154	0	32892	32322	
5155	0	32782	32263	
5156	0	32828	32247	
5157	0	32888	32405	
5158	0	33072	32702	
5159	0	32836	32695	
5160	0	32844	32775	
5161	0	32828	32839	
5162	0	32904	32487	
5163	0	33004	32245	
5164	0	32934	31701	
5165	0	33124	31711	
5166	0	32968	32439	
5167	0	33018	32644	
5168	0	32884	32837	
5169	0	32884	32836	
5170	0	32848	32826	
5171	0	32792	32558	
5172	0	32686	32134	
5173	0	32692	32047	
5174	0	32704	32007	
5175	0	32562	32191	
5176	0	32640	32869	
5177	0	32668	33175	
5178	0	32704	33556	
5179	0	32442	33623	
5180	0	32645	33700	
5181	0	32656	33326	
5182	0	32580	33172	
5183	0	32578	32431	
5184	0	32632	30895	
5185	0	32580	29998	
5186	0	32770	29517	
5187	0	33030	30056	
5188	0	33128	31271	
5189	0	32992	31700	
5190	0	33080	32207	
5191	0	32928	32431	
5192	0	32978	32844	
5193	0	33036	33031	
5194	0	32900	33213	
5195	0	32980	33558	
5196	0	33052	33319	
5197	0	32916	32935	
5198	0	32778	32775	
5199	0	32694	32837	
5200	0	32668	32953	
5201	0	32676	32943	
5202	0	32554	32631	
5203	0	32724	32388	
5204	0	32784	32422	
5205	0	32700	32671	
5206	0	32690	32607	
5207	0	32724	32350	
5208	0	32820	32231	
5209	0	32676	32135	
5210	0	32748	32547	
5211	0	32788	32438	
5212	0	32919	32223	
5213	0	32697	32204	
5214	0	32790	32486	
5215	0	32824	32414	
5216	0	32758	32135	
5217	0	32718	32527	
5218	0	32798	32383	
5219	0	32800	32135	
5220	0	32922	32497	
5221	0	32754	32291	
5222	0	32752	32228	
5223	0	32814	32556	
5224	0	32792	32567	
5225	0	32823	32260	
5226	0	32872	32135	
5227	0	32900	32222	
5228	0	32700	32327	
5229	0	32712	32391	
5230	0	32722	32510	
5231	0	32784	32452	
5232	0	32852	32077	
5233	0	32780	32183	
5234	0	32804	32369	
5235	0	32767	32638	
5236	0	32798	32612	
5237	0	32744	32572	
5238	0	32834	32690	
5239	0	32804	32544	
5240	0	32684	32343	
5241	0	32704	32247	
5242	0	32726	32198	
5243	0	32758	32209	
5244	0	32750	32320	
5245	0	32818	32375	
5246	0	32758	32468	
5247	0	32644	32548	
5248	0	32608	32615	
5249	0	32762	32682	
5250	0	32848	32621	
5251	0	32666	32364	
5252	0	32708	32340	
5253	0	32718	32260	
5254	0	32730	32316	
5255	0	32602	32341	
5256	0	32704	32239	
5257	0	32906	32204	
5258	0	32996	32228	
5259	0	33038	32237	
5260	0	33096	32170	
5261	0	33092	32242	
5262	0	33081	32479	
5263	0	33012	32462	
5264	0	32996	32421	
5265	0	33156	32224	
5266	0	32964	32263	
5267	0	32912	32447	
5268	0	33106	32646	
5269	0	33102	32615	
5270	0	33088	32375	
5271	0	33056	32212	
5272	0	33154	32244	
5273	0	33220	32346	
5274	0	33208	32585	
5275	0	33136	32695	
5276	0	33064	32300	
5277	0	33104	32230	
5278	0	33002	32217	
5279	0	32836	32423	
5280	0	32832	32499	
5281	0	32944	32556	
5282	0	32724	32686	
5283	0	32648	32645	
5284	0	32782	32658	
5285	0	32624	32575	
5286	0	32618	32583	
5287	0	32301	32614	
5288	0	32380	32563	
5289	0	32228	32487	
5290	0	32140	32463	
5291	0	32226	32222	
5292	0	32266	32177	
5293	0	32248	32335	
5294	0	32432	32583	
5295	0	32340	32689	
5296	0	32382	32620	
5297	0	32296	32263	
5298	0	32268	32231	
5299	0	32408	32291	
5300	0	32396	32458	
5301	0	32440	32557	
5302	0	32556	32647	
5303	0	32778	32630	
5304	0	32708	32591	
5305	0	32816	32602	
5306	0	32884	32539	
5307	0	32808	32499	
5308	0	32926	32470	
5309	0	32964	32310	
5310	0	32996	32202	
5311	0	33060	32199	
5312	0	32996	32189	
5313	0	33034	32263	
5314	0	32906	32391	
5315	0	32950	32563	
5316	0	32926	32807	
5317	0	32948	32882	
5318	0	32994	32849	
5319	0	33020	32775	
5320	0	32924	32583	
5321	0	32920	32236	
5322	0	33060	31820	
5323	0	32917	31718	
5324	0	32860	31735	
5325	0	32864	32007	
5326	0	32842	32468	
5327	0	32792	32375	
5328	0	32836	32239	
5329	0	32924	32342	
5330	0	32852	32358	
5331	0	32790	32505	
5332	0	32788	32799	
5333	0	32784	32710	
5334	0	32820	32480	
5335	0	32826	32254	
5336	0	32895	32391	
5337	0	32772	32558	
5338	0	32842	32764	
5339	0	32810	32660	
5340	0	32758	32295	
5341	0	32665	32263	
5342	0	32775	32236	
5343	0	32845	32372	
5344	0	32959	32263	
5345	0	32844	32351	
5346	0	32872	32660	
5347	0	32902	32610	
5348	0	32688	32540	
5349	0	32852	32410	
5350	0	32775	32260	
5351	0	32832	32327	
5352	0	32680	32342	
5353	0	32852	32399	
5354	0	32870	32415	
5355	0	32842	32532	
5356	0	32676	32559	
5357	0	32775	32550	
5358	0	32872	32558	
5359	0	32744	32541	
5360	0	32844	32426	
5361	0	32740	32293	
5362	0	32876	32309	
5363	0	32764	32431	
5364	0	32804	32491	
5365	0	32818	32706	
5366	0	32821	32615	
5367	0	32796	32543	
5368	0	32800	32162	
5369	0	32804	32231	
5370	0	32848	32423	
5371	0	32754	32691	
5372	0	32808	32552	
5373	0	32837	32543	
5374	0	32910	32903	
5375	0	32880	33204	
5376	0	32740	33448	
5377	0	32810	33556	
5378	0	32852	33520	
5379	0	32782	32948	
5380	0	32716	32039	
5381	0	32888	31195	
5382	0	32776	31551	
5383	0	32775	31399	
5384	0	32740	31239	
5385	0	32814	31015	
5386	0	32740	31054	
5387	0	32660	31188	
5388	0	32802	31844	
5389	0	32734	32034	
5390	0	32780	32135	
5391	0	32814	32421	
5392	0	32812	32848	
5393	0	32842	32991	
5394	0	32874	32964	
5395	0	32832	32923	
5396	0	32886	32903	
5397	0	32815	32956	
5398	0	32760	33071	
5399	0	32828	33124	
5400	0	32748	33031	
5401	0	32800	32899	
5402	0	32856	32679	
5403	0	32740	32466	
5404	0	32759	32343	
5405	0	32762	32352	
5406	0	32814	32303	
5407	0	32834	32324	
5408	0	32830	32471	
5409	0	32742	32617	
5410	0	32774	32791	
5411	0	32798	32924	
5412	0	32810	32884	
5413	0	32797	32683	
5414	0	32822	32349	
5415	0	32846	32091	
5416	0	32796	32195	
5417	0	32804	32263	
5418	0	32764	31951	
5419	0	32790	32147	
5420	0	32776	32261	
5421	0	32860	32038	
5422	0	32916	32348	
5423	0	32788	32735	
5424	0	32734	32757	
5425	0	32740	32456	
5426	0	32730	32327	
5427	0	32836	32254	
5428	0	32878	32372	
5429	0	32897	32547	
5430	0	32774	32615	
5431	0	32896	32391	
5432	0	32832	32311	
5433	0	32724	32436	
5434	0	32788	32687	
5435	0	32753	32437	
5436	0	32680	32246	
5437	0	32778	32294	
5438	0	32748	32661	
5439	0	32784	32430	
5440	0	32776	32303	
5441	0	32756	32607	
5442	0	32791	32508	
5443	0	32804	32158	
5444	0	32864	32455	
5445	0	32772	32578	
5446	0	32815	32172	
5447	0	32786	32415	
5448	0	32751	32630	
5449	0	32764	32645	
5450	0	32860	32496	
5451	0	32858	32612	
5452	0	32908	32263	
5453	0	32792	32463	
5454	0	32848	32558	
5455	0	32751	32223	
5456	0	32833	32327	
5457	0	32831	32667	
5458	0	32788	32536	
5459	0	32820	32209	
5460	0	32826	32503	
5461	0	32748	32562	
5462	0	32780	32236	
5463	0	32775	32423	
5464	0	32732	32675	
5465	0	32800	32370	
5466	0	32756	32143	
5467	0	32816	32316	
5468	0	32885	32422	
5469	0	32754	32694	
5470	0	32738	32428	
5471	0	32812	32236	
5472	0	32828	32455	
5473	0	32964	32668	
5474	0	32712	32478	
5475	0	32724	32274	
5476	0	32775	32318	
5477	0	32806	32657	
5478	0	32820	32658	
5479	0	32874	32461	
5480	0	32816	32462	
5481	0	32830	32348	
5482	0	32817	32247	
5483	0	32860	32237	
5484	0	32734	32117	
5485	0	32804	32231	
5486	0	32820	32407	
5487	0	32740	32199	
5488	0	32764	32086	
5489	0	32862	32191	
5490	0	32828	32486	
5491	0	32806	32414	
5492	0	32780	31969	
5493	0	32817	31406	
5494	0	32855	31875	
5495	0	32820	32551	
5496	0	32842	32726	
5497	0	32786	32503	
5498	0	32810	32647	
5499	0	32840	32719	
5500	0	32752	32549	
5501	0	32840	32478	
5502	0	32784	32663	
5503	0	32756	32370	
5504	0	32840	32207	
5505	0	32826	32325	
5506	0	32830	32437	
5507	0	32798	32703	
5508	0	32796	32674	
5509	0	32856	32583	
5510	0	32849	32388	
5511	0	32852	32303	
5512	0	32824	32215	
5513	0	32836	32221	
5514	0	32805	32308	
5515	0	32756	32276	
5516	0	32798	32353	
5517	0	32760	32319	
5518	0	32788	32431	
5519	0	32734	32695	
5520	0	32794	32647	
5521	0	32812	32557	
5522	0	32758	32675	
5523	0	32792	32689	
5524	0	32844	32640	
5525	0	32736	32692	
5526	0	32816	32666	
5527	0	32870	32629	
5528	0	32785	32550	
5529	0	32792	32550	
5530	0	32848	32511	
5531	0	32756	32538	
5532	0	32759	32578	
5533	0	32800	32604	
5534	0	32832	32615	
5535	0	32792	32643	
5536	0	32800	32668	
5537	0	32776	32618	
5538	0	32801	32607	
5539	0	32775	32398	
5540	0	32836	32340	
5541	0	32782	32231	
5542	0	32766	32238	
5543	0	32799	32199	
5544	0	32838	32258	
5545	0	32712	32301	
5546	0	32756	32391	
5547	0	32788	32427	
5548	0	32775	32418	
5549	0	32740	32444	
5550	0	32800	32604	
5551	0	32860	32659	
5552	0	32896	32631	
5553	0	32758	32452	
5554	0	32752	32236	
5555	0	32750	32259	
5556	0	32828	32551	
5557	0	32784	32651	
5558	0	32844	32225	
5559	0	32824	32599	
5560	0	32830	32384	
5561	0	32792	32391	
5562	0	32900	32692	
5563	0	32748	32315	
5564	0	32884	32147	
5565	0	32856	32215	
5566	0	32774	32312	
5567	0	32752	32431	
5568	0	32748	32775	
5569	0	32772	32839	
5570	0	32754	32828	
5571	0	32848	32756	
5572	0	32746	32623	
5573	0	32753	32427	
5574	0	32784	32294	
5575	0	32784	32093	
5576	0	32872	31927	
5577	0	32792	32067	
5578	0	32792	32255	
5579	0	32856	32444	
5580	0	32804	32636	
5581	0	32775	32759	
5582	0	32832	32822	
5583	0	32884	32641	
5584	0	32853	32535	
5585	0	32826	32383	
5586	0	32790	32298	
5587	0	32794	32375	
5588	0	32796	32476	
5589	0	32756	32630	
5590	0	32801	32663	
5591	0	32826	32610	
5592	0	32820	32590	
5593	0	32816	32591	
5594	0	32852	32314	
5595	0	32810	32615	
5596	0	32800	32458	
5597	0	32838	32207	
5598	0	32736	32202	
5599	0	32744	32703	
5600	0	32842	32686	
5601	0	32794	32545	
5602	0	32750	32959	
5603	0	32806	32599	
5604	0	32771	32410	
5605	0	32781	32925	
5606	0	32759	32378	
5607	0	32864	31969	
5608	0	32728	32308	
5609	0	32696	31925	
5610	0	32764	32135	
5611	0	32862	32502	
5612	0	32784	32287	
5613	0	32749	32530	
5614	0	32800	32239	
5615	0	32788	32036	
5616	0	32794	32295	
5617	0	32830	32260	
5618	0	32832	32340	
5619	0	32876	32711	
5620	0	32756	32678	
5621	0	32862	32143	
5622	0	32748	32387	
5623	0	32788	32298	
5624	0	32812	32559	
5625	0	32775	32662	
5626	0	32736	32287	
5627	0	32797	32366	
5628	0	32774	32190	
5629	0	32820	32387	
5630	0	32832	32507	
5631	0	32800	32343	
5632	0	32838	32730	
5633	0	32842	32391	
5634	0	32786	32526	
5635	0	32748	32774	
5636	0	32794	32423	
5637	0	32828	32533	
5638	0	32832	32711	
5639	0	32793	32311	
5640	0	32794	32135	
5641	0	32730	32183	
5642	0	32792	32284	
5643	0	32760	32175	
5644	0	32840	32155	
5645	0	32888	32199	
5646	0	32816	32295	
5647	0	32708	32238	
5648	0	32887	32282	
5649	0	32828	32410	
5650	0	32784	32283	
5651	0	32816	32339	
5652	0	32816	32258	
5653	0	32800	32307	
5654	0	32854	32325	
5655	0	32783	32231	
5656	0	32836	32350	
5657	0	32860	32348	
5658	0	32708	32420	
5659	0	32730	32588	
5660	0	32728	32601	
5661	0	32768	32519	
5662	0	32810	32372	
5663	0	32856	32231	
5664	0	32770	32259	
5665	0	32814	32260	
5666	0	32770	32316	
5667	0	32824	32479	
5668	0	32828	32519	
5669	0	32772	32447	
5670	0	32838	32674	
5671	0	32898	32639	
5672	0	32776	32592	
5673	0	32768	32500	
5674	0	32770	32356	
5675	0	32789	32306	
5676	0	32794	32257	
5677	0	32816	32301	
5678	0	32732	32412	
5679	0	32821	32590	
5680	0	32784	32611	
5681	0	32773	32604	
5682	0	32836	32622	
5683	0	32775	32406	
5684	0	32836	32263	
5685	0	32804	32207	
5686	0	32746	32079	
5687	0	32684	32158	
5688	0	32836	32103	
5689	0	32804	32199	
5690	0	32912	32303	
5691	0	32864	32476	
5692	0	32772	32476	
5693	0	32772	32727	
5694	0	32788	32634	
5695	0	32720	32575	
5696	0	32806	32086	
5697	0	32804	32056	
5698	0	32836	32090	
5699	0	32778	32214	
5700	0	32812	32385	
5701	0	32742	32431	
5702	0	32844	32743	
5703	0	32804	32682	
5704	0	32806	32327	
5705	0	32772	32167	
5706	0	32874	32263	
5707	0	32756	32572	
5708	0	32744	32686	
5709	0	32788	32487	
5710	0	32804	32239	
5711	0	32784	32599	
5712	0	32820	32577	
5713	0	32798	32238	
5714	0	32789	32441	
5715	0	32748	32454	
5716	0	32784	32179	
5717	0	32782	32308	
5718	0	32848	32582	
5719	0	32808	32692	
5720	0	32816	32747	
5721	0	32828	32806	
5722	0	32768	32582	
5723	0	32834	32285	
5724	0	32772	32247	
5725	0	32804	32253	
5726	0	32806	32318	
