# OpenSignals Text File Format. Version 1
# {"00:07:80:4B:3C:23": {"position": 0, "device": "biosignalsplux", "device name": "00:07:80:4B:3C:23", "device connection": "BTH00:07:80:4B:3C:23", "sampling rate": 1000, "resolution": [16, 16], "firmware version": 776, "comments": "", "keywords": "", "mode": 0, "sync interval": 2, "date": "2024-9-26", "time": "11:2:47.79", "channels": [5, 7], "sensor": ["EMG", "EMG"], "label": ["CH5", "CH7"], "column": ["nSeq", "DI", "CH5", "CH7"], "special": [{"SpO2": [80, 40, 5, 4, 3, 3]}, {"SpO2": [80, 40, 5, 4, 3, 3]}, {"SpO2": [80, 40, 5, 4, 3, 3]}, {"SpO2": [80, 40, 5, 4, 3, 3]}, {"SpO2": [80, 40, 5, 4, 3, 3]}, {"SpO2": [80, 40, 5, 4, 3, 3]}, {"SpO2": [80, 40, 5, 4, 3, 3]}, {"SpO2": [80, 40, 5, 4, 3, 3]}], "digital IO": [0, 1], "sleeve color": ["gray", "brown"]}}
# EndOfHeader
0	0	32838	32598	
1	0	32799	32404	
2	0	32728	32263	
3	0	32752	32376	
4	0	32718	32318	
5	0	32788	32343	
6	0	32808	32503	
7	0	32766	32689	
8	0	32820	32551	
9	0	32780	31948	
10	0	32804	31890	
11	0	32748	33022	
12	0	32818	32886	
13	0	32814	32215	
14	0	32776	31743	
15	0	32808	31963	
16	0	32852	32388	
17	0	32852	32965	
18	0	32768	32471	
19	0	32828	32007	
20	0	32804	33023	
21	0	32808	33010	
22	0	32732	32263	
23	0	32848	32143	
24	0	32816	32334	
25	0	32772	32318	
26	0	32700	32596	
27	0	32784	32655	
28	0	32824	32479	
29	0	32844	32291	
30	0	32791	32299	
31	0	32812	32278	
32	0	32856	32027	
33	0	32834	32409	
34	0	32792	32347	
35	0	32760	32479	
36	0	32761	32935	
37	0	32799	32954	
38	0	32856	32807	
39	0	32862	32990	
40	0	32774	32759	
41	0	32808	32694	
42	0	32823	32615	
43	0	32820	32308	
44	0	32852	32903	
45	0	32750	32999	
46	0	32820	32687	
47	0	32832	32245	
48	0	32716	31221	
49	0	32836	31343	
50	0	32736	31629	
51	0	32826	32039	
52	0	32760	31969	
53	0	32780	33331	
54	0	32804	33659	
55	0	32756	33276	
56	0	32708	33207	
57	0	32840	32583	
58	0	32818	32327	
59	0	32750	32263	
60	0	32760	31984	
61	0	32832	31847	
62	0	32784	32327	
63	0	32724	32647	
64	0	32782	32618	
65	0	32856	32373	
66	0	32808	32281	
67	0	32760	32261	
68	0	32786	32135	
69	0	32812	31867	
70	0	32806	32095	
71	0	32768	32254	
72	0	32768	32451	
73	0	32844	32631	
74	0	32736	32575	
75	0	32836	32645	
76	0	32774	32278	
77	0	32741	31804	
78	0	32860	32644	
79	0	32815	32931	
80	0	32749	32397	
81	0	32816	32431	
82	0	32786	32575	
83	0	32780	32573	
84	0	32792	32242	
85	0	32780	32451	
86	0	32816	32516	
87	0	32880	31936	
88	0	32780	32059	
89	0	32792	32542	
90	0	32831	32775	
91	0	32804	32678	
92	0	32884	32534	
93	0	32784	32577	
94	0	32820	32538	
95	0	32804	32540	
96	0	32748	32495	
97	0	32734	32431	
98	0	32750	32550	
99	0	32804	32507	
100	0	32772	32558	
101	0	32816	32623	
102	0	32788	32159	
103	0	32780	31844	
104	0	32862	32372	
105	0	32860	32615	
106	0	32836	32660	
107	0	32742	32571	
108	0	32757	32583	
109	0	32784	32471	
110	0	32798	32861	
111	0	32804	32887	
112	0	32840	32483	
113	0	32764	31950	
114	0	32810	32174	
115	0	32748	32230	
116	0	32794	31271	
117	0	32798	31125	
118	0	32816	32060	
119	0	32762	32620	
120	0	32808	32423	
121	0	32836	32496	
122	0	32828	32543	
123	0	32788	32478	
124	0	32775	31910	
125	0	32756	31751	
126	0	32796	32487	
127	0	32788	32839	
128	0	32792	32519	
129	0	32764	33045	
130	0	32792	33064	
131	0	32778	32703	
132	0	32824	32103	
133	0	32849	31846	
134	0	32853	32237	
135	0	32792	32614	
136	0	32804	32614	
137	0	32812	32739	
138	0	32758	31962	
139	0	32775	31540	
140	0	32878	32599	
141	0	32824	32557	
142	0	32820	32813	
143	0	32724	32491	
144	0	32798	32839	
145	0	32798	32324	
146	0	32844	32599	
147	0	32742	32647	
148	0	32785	32606	
149	0	32832	32518	
150	0	32870	32499	
151	0	32840	32223	
152	0	32796	31926	
153	0	32854	32407	
154	0	32774	32801	
155	0	32824	32903	
156	0	32772	32514	
157	0	32775	32391	
158	0	32746	32575	
159	0	32788	32773	
160	0	32798	33127	
161	0	32808	32743	
162	0	32775	32295	
163	0	32778	31927	
164	0	32784	32311	
165	0	32863	32636	
166	0	32812	32571	
167	0	32892	31652	
168	0	32772	31691	
169	0	32800	32774	
170	0	32850	32689	
171	0	32775	32367	
172	0	32772	32405	
173	0	32740	31964	
174	0	32796	31906	
175	0	32704	32183	
176	0	32772	32323	
177	0	32822	32327	
178	0	32828	32375	
179	0	32764	32292	
180	0	32758	32158	
181	0	32868	32388	
182	0	32832	31903	
183	0	32818	32023	
184	0	32824	32094	
185	0	32834	31623	
186	0	32830	31948	
187	0	32774	32871	
188	0	32792	32810	
189	0	32806	32672	
190	0	32748	32668	
191	0	32812	32719	
192	0	32796	32729	
193	0	32876	32924	
194	0	32780	32668	
195	0	32766	32279	
196	0	32800	32051	
197	0	32858	32303	
198	0	32754	32343	
199	0	32760	31922	
200	0	32796	32003	
201	0	32826	32476	
202	0	32854	32671	
203	0	32806	32636	
204	0	32808	32551	
205	0	32712	32507	
206	0	32844	32238	
207	0	32832	32423	
208	0	32817	32119	
209	0	32836	32350	
210	0	32836	32439	
211	0	32775	32427	
212	0	32730	32804	
213	0	32832	32596	
214	0	32780	31844	
215	0	32700	31154	
216	0	32734	32086	
217	0	32756	32383	
218	0	32800	32391	
219	0	32794	32374	
220	0	32788	32301	
221	0	32784	32774	
222	0	32798	33079	
223	0	32796	32931	
224	0	32896	32429	
225	0	32780	32079	
226	0	32888	31852	
227	0	32760	32175	
228	0	32736	32468	
229	0	32741	33055	
230	0	32782	33196	
231	0	32820	32263	
232	0	32732	31975	
233	0	32889	32109	
234	0	32852	32186	
235	0	32852	32127	
236	0	32790	32480	
237	0	32866	32420	
238	0	32816	32374	
239	0	32660	32583	
240	0	32804	32839	
241	0	32748	32332	
242	0	32744	31723	
243	0	32758	32072	
244	0	32721	33037	
245	0	32742	32519	
246	0	32816	32517	
247	0	32804	32598	
248	0	32868	32287	
249	0	32789	32455	
250	0	32672	32367	
251	0	32788	31940	
252	0	32744	32431	
253	0	32791	32855	
254	0	32784	32570	
255	0	32736	32647	
256	0	32774	32260	
257	0	32780	32726	
258	0	32784	32410	
259	0	32775	31743	
260	0	32757	32108	
261	0	32792	32108	
262	0	32752	31927	
263	0	32874	32201	
264	0	32806	31951	
265	0	32836	32343	
266	0	32768	32663	
267	0	32750	32707	
268	0	32732	32334	
269	0	32816	32309	
270	0	32821	32623	
271	0	32812	31722	
272	0	32886	31965	
273	0	32930	32455	
274	0	32870	33126	
275	0	32908	33031	
276	0	32956	32356	
277	0	32952	32263	
278	0	32980	32895	
279	0	33036	32724	
280	0	33036	32439	
281	0	32968	32131	
282	0	32950	32062	
283	0	32980	32120	
284	0	32897	32406	
285	0	32844	32470	
286	0	32794	32279	
287	0	32664	32543	
288	0	32682	32204	
289	0	32670	32431	
290	0	32676	32615	
291	0	32679	32399	
292	0	32681	32551	
293	0	32522	32638	
294	0	32632	32614	
295	0	32662	32528	
296	0	32676	32378	
297	0	32720	32455	
298	0	32722	32447	
299	0	32698	32445	
300	0	32836	31612	
301	0	32836	32172	
302	0	32912	32599	
303	0	32908	32628	
304	0	32852	32675	
305	0	32841	32603	
306	0	32818	32371	
307	0	32768	32527	
308	0	32792	32860	
309	0	32832	32881	
310	0	32830	32482	
311	0	32828	32324	
312	0	32764	32966	
313	0	32753	33030	
314	0	32775	32835	
315	0	32796	31862	
316	0	32644	31724	
317	0	32796	31803	
318	0	32832	31518	
319	0	32796	31130	
320	0	32884	32239	
321	0	32772	33312	
322	0	32788	32588	
323	0	32829	32335	
324	0	32860	32426	
325	0	32840	32431	
326	0	32820	32387	
327	0	32794	32420	
328	0	32756	32239	
329	0	32792	32159	
330	0	32740	31879	
331	0	32764	32174	
332	0	32774	32519	
333	0	32721	32291	
334	0	32804	32162	
335	0	32812	32528	
336	0	32824	32354	
337	0	32801	32580	
338	0	32660	33044	
339	0	32764	32839	
340	0	32812	32804	
341	0	32868	32615	
342	0	32828	32627	
343	0	32732	32823	
344	0	32726	32767	
345	0	32774	32582	
346	0	32794	32074	
347	0	32808	32391	
348	0	32836	32956	
349	0	32748	33086	
350	0	32805	33018	
351	0	32780	32679	
352	0	32868	32438	
353	0	32772	31991	
354	0	32801	31215	
355	0	32736	32210	
356	0	32826	33214	
357	0	32775	32519	
358	0	32730	32159	
359	0	32697	32180	
360	0	32834	32298	
361	0	32836	32172	
362	0	32820	32388	
363	0	32748	32694	
364	0	32772	32018	
365	0	32709	32290	
366	0	32720	32732	
367	0	32648	33610	
368	0	32708	33287	
369	0	32722	32871	
370	0	32644	32439	
371	0	32656	31999	
372	0	32670	32079	
373	0	32752	32143	
374	0	32692	32223	
375	0	32676	32131	
376	0	32810	32079	
377	0	32920	32079	
378	0	33004	32062	
379	0	33048	32154	
380	0	33192	32204	
381	0	33132	32391	
382	0	33032	32411	
383	0	33112	32279	
384	0	33124	32306	
385	0	32984	32193	
386	0	32976	32151	
387	0	33100	32130	
388	0	33076	32084	
389	0	33052	32110	
390	0	33178	32038	
391	0	33172	32475	
392	0	33176	32151	
393	0	33204	32470	
394	0	33178	32038	
395	0	33084	32348	
396	0	33008	32529	
397	0	32988	33279	
398	0	32764	32870	
399	0	32802	32670	
400	0	32786	32335	
401	0	32808	32079	
402	0	32748	32175	
403	0	32668	32196	
404	0	32630	32310	
405	0	32556	32551	
406	0	32492	32850	
407	0	32372	33041	
408	0	32316	32927	
409	0	32103	32620	
410	0	32156	32103	
411	0	32244	31031	
412	0	32310	31991	
413	0	32428	32887	
414	0	32420	33118	
415	0	32366	32510	
416	0	32342	32072	
417	0	32263	32606	
418	0	32394	32789	
419	0	32464	32327	
420	0	32520	32561	
421	0	32607	32431	
422	0	32724	32028	
423	0	32812	32478	
424	0	32742	32516	
425	0	32804	32125	
426	0	32820	32544	
427	0	33004	32855	
428	0	33056	32559	
429	0	33032	32344	
430	0	33012	32175	
431	0	32920	32226	
432	0	32896	32253	
433	0	32986	32468	
434	0	32944	32196	
435	0	32894	33073	
436	0	32988	32039	
437	0	33006	32517	
438	0	32942	32669	
439	0	32864	32471	
440	0	32884	32668	
441	0	32932	33009	
442	0	32976	32863	
443	0	32864	32682	
444	0	32836	32558	
445	0	32924	32566	
446	0	32892	32389	
447	0	32862	31879	
448	0	32798	31925	
449	0	32862	32814	
450	0	32828	33403	
451	0	32818	32327	
452	0	32742	32391	
453	0	32788	32103	
454	0	32800	32050	
455	0	32831	32481	
456	0	32796	32463	
457	0	32788	32596	
458	0	32804	33095	
459	0	32876	32979	
460	0	32880	32771	
461	0	32799	32647	
462	0	32788	32081	
463	0	32768	31151	
464	0	32788	32878	
465	0	32832	33059	
466	0	32816	32222	
467	0	32775	32186	
468	0	32784	32249	
469	0	32775	32135	
470	0	32872	32189	
471	0	32792	32319	
472	0	32834	32263	
473	0	32772	32370	
474	0	32804	32327	
475	0	32831	32231	
476	0	32854	32502	
477	0	32840	32708	
478	0	32768	32274	
479	0	32818	31958	
480	0	32804	32067	
481	0	32756	32351	
482	0	32896	32255	
483	0	32806	32386	
484	0	32714	32775	
485	0	32788	32374	
486	0	32808	32247	
487	0	32836	32654	
488	0	32751	32373	
489	0	32816	32438	
490	0	32812	32735	
491	0	32848	32743	
492	0	32872	32739	
493	0	32780	32474	
494	0	32788	32094	
495	0	32752	32591	
496	0	32836	32238	
497	0	32856	32647	
498	0	32800	32567	
499	0	32744	32149	
500	0	32828	32207	
501	0	32822	32638	
502	0	32832	32583	
503	0	32830	32287	
504	0	32724	32155	
505	0	32848	31868	
506	0	32788	31491	
507	0	32768	32094	
508	0	32822	32823	
509	0	32705	32899	
510	0	32804	32923	
511	0	32796	32896	
512	0	32794	32810	
513	0	32836	32099	
514	0	32816	32470	
515	0	32831	32503	
516	0	32750	32400	
517	0	32808	32343	
518	0	32836	32228	
519	0	32888	32250	
520	0	32775	32195	
521	0	32740	32316	
522	0	32778	32442	
523	0	32716	32428	
524	0	32804	32218	
525	0	32801	31905	
526	0	32798	31798	
527	0	32806	32449	
528	0	32781	31949	
529	0	32816	32806	
530	0	32778	32743	
531	0	32805	32806	
532	0	32744	32683	
533	0	32768	32739	
534	0	32756	32423	
535	0	32790	32158	
536	0	32784	32638	
537	0	32834	33090	
538	0	32792	32636	
539	0	32782	32006	
540	0	32792	32158	
541	0	32817	32498	
542	0	32872	32243	
543	0	32802	32053	
544	0	32844	31847	
545	0	32804	32092	
546	0	32788	32672	
547	0	32788	32813	
548	0	32772	32743	
549	0	32788	32671	
550	0	32800	32567	
551	0	32732	32343	
552	0	32824	32320	
553	0	32808	32759	
554	0	32760	32747	
555	0	32800	32663	
556	0	32824	32963	
557	0	32780	32796	
558	0	32828	31188	
559	0	32836	31578	
560	0	32855	31995	
561	0	32766	32465	
562	0	32770	33103	
563	0	32824	32855	
564	0	32800	32535	
565	0	32778	32698	
566	0	32868	32874	
567	0	32782	32584	
568	0	32856	31978	
569	0	32790	32670	
570	0	32836	32868	
571	0	32832	32887	
572	0	32796	32999	
573	0	32800	32534	
574	0	32764	32158	
575	0	32789	32310	
576	0	32864	32410	
577	0	32846	32206	
578	0	32756	32309	
579	0	32736	32391	
580	0	32856	32319	
581	0	32708	32030	
582	0	32896	32367	
583	0	32736	32263	
584	0	32858	32615	
585	0	32764	31991	
586	0	32864	32263	
587	0	32864	32303	
588	0	32712	32700	
589	0	32775	32438	
590	0	32848	32199	
591	0	32784	32334	
592	0	32837	32367	
593	0	32780	32660	
594	0	32756	32639	
595	0	32828	32732	
596	0	32846	32742	
597	0	32816	32476	
598	0	32816	32463	
599	0	32776	31695	
600	0	32832	31447	
601	0	32844	32543	
602	0	32800	32650	
603	0	32800	32911	
604	0	32782	32923	
605	0	32892	32717	
606	0	32768	32559	
607	0	32785	32007	
608	0	32774	31166	
609	0	32876	31211	
610	0	32824	32324	
611	0	32794	32897	
612	0	32708	32574	
613	0	32764	32775	
614	0	32769	32959	
615	0	32772	32854	
616	0	32796	32687	
617	0	32834	32449	
618	0	32796	32309	
619	0	32852	32319	
620	0	32874	31958	
621	0	32762	32310	
622	0	32830	32063	
623	0	32847	32272	
624	0	32744	32390	
625	0	32832	32479	
626	0	32788	32589	
627	0	32788	32396	
628	0	32828	32655	
629	0	32748	32519	
630	0	32850	32414	
631	0	32794	32090	
632	0	32825	31908	
633	0	32720	32044	
634	0	32734	32839	
635	0	32808	32664	
636	0	32854	32258	
637	0	32734	32716	
638	0	32796	32667	
639	0	32756	33030	
640	0	32840	32410	
641	0	32856	32140	
642	0	32820	32244	
643	0	32812	32740	
644	0	32782	32823	
645	0	32721	32631	
646	0	32889	32595	
647	0	32794	32422	
648	0	32836	32819	
649	0	32769	32669	
650	0	32716	32771	
651	0	32764	32647	
652	0	32756	32503	
653	0	32816	32553	
654	0	32778	32399	
655	0	32842	32096	
656	0	32838	31967	
657	0	32825	32535	
658	0	32820	32687	
659	0	32736	32597	
660	0	32794	32572	
661	0	32916	32495	
662	0	32712	32997	
663	0	32764	33263	
664	0	32808	32766	
665	0	32822	32206	
666	0	32752	32423	
667	0	32836	31403	
668	0	32812	31550	
669	0	32789	32287	
670	0	32848	32391	
671	0	32856	31940	
672	0	32876	32048	
673	0	32748	32614	
674	0	32768	32746	
675	0	32742	32610	
676	0	32784	32413	
677	0	32800	32263	
678	0	32828	32575	
679	0	32780	32627	
680	0	32744	32495	
681	0	32720	32005	
682	0	32796	32495	
683	0	32794	32775	
684	0	32774	32807	
685	0	32834	32508	
686	0	32844	32471	
687	0	32822	32622	
688	0	32774	32615	
689	0	32884	32471	
690	0	32759	32401	
691	0	32752	32644	
692	0	32790	32606	
693	0	32844	32516	
694	0	32808	32036	
695	0	32830	31858	
696	0	32750	31487	
697	0	32798	31615	
698	0	32756	32263	
699	0	32772	32235	
700	0	32854	32887	
701	0	32834	32660	
702	0	32774	32924	
703	0	32770	32625	
704	0	32756	32367	
705	0	32754	32943	
706	0	32784	32519	
707	0	32784	32347	
708	0	32688	32374	
709	0	32816	32151	
710	0	32821	32951	
711	0	32840	32668	
712	0	32780	32038	
713	0	32768	32427	
714	0	32796	32287	
715	0	32864	32386	
716	0	32772	32790	
717	0	32820	32959	
718	0	32836	32966	
719	0	32752	32631	
720	0	32768	31791	
721	0	32824	30741	
722	0	32818	30815	
723	0	32744	32049	
724	0	32762	32948	
725	0	32796	33415	
726	0	32808	33212	
727	0	32768	32564	
728	0	32720	32199	
729	0	32801	32458	
730	0	32718	32463	
731	0	32824	32263	
732	0	32794	32605	
733	0	32884	32666	
734	0	32838	32583	
735	0	32900	32534	
736	0	32800	32346	
737	0	32740	32167	
738	0	32804	32167	
739	0	32754	32231	
740	0	32824	32330	
741	0	32810	32356	
742	0	32760	32319	
743	0	32742	32253	
744	0	32848	32167	
745	0	32828	32285	
746	0	32837	32456	
747	0	32800	32703	
748	0	32800	32540	
749	0	32728	32251	
750	0	32832	31910	
751	0	32796	31960	
752	0	32756	32379	
753	0	32828	32447	
754	0	32769	32835	
755	0	32799	33287	
756	0	32748	32656	
757	0	32828	32667	
758	0	32802	32471	
759	0	32864	32420	
760	0	32818	32468	
761	0	32784	32583	
762	0	32856	32698	
763	0	32908	32239	
764	0	32826	32390	
765	0	32760	32519	
766	0	32830	32314	
767	0	32836	31670	
768	0	32768	32007	
769	0	32882	32527	
770	0	32784	32110	
771	0	32760	32639	
772	0	32836	32543	
773	0	32804	31894	
774	0	32794	32004	
775	0	32834	32262	
776	0	32784	32255	
777	0	32836	32558	
778	0	32924	33048	
779	0	32744	33106	
780	0	32800	32917	
781	0	32808	32599	
782	0	32700	32775	
783	0	32773	32697	
784	0	32761	32607	
785	0	32818	32479	
786	0	32790	32422	
787	0	32829	32428	
788	0	32882	32475	
789	0	32788	32322	
790	0	32854	32358	
791	0	32758	32421	
792	0	32824	32453	
793	0	32794	32312	
794	0	32775	32227	
795	0	32783	32346	
796	0	32820	32311	
797	0	32768	32089	
798	0	32768	32311	
799	0	32856	32327	
800	0	32932	32454	
801	0	32790	32667	
802	0	32783	32775	
803	0	32830	32623	
804	0	32768	32311	
805	0	32838	31804	
806	0	32758	31526	
807	0	32720	34008	
808	0	32832	32998	
809	0	32730	32204	
810	0	32767	32287	
811	0	32836	32791	
812	0	32724	32719	
813	0	32836	32742	
814	0	32784	32570	
815	0	32756	32319	
816	0	32802	32164	
817	0	32801	32127	
818	0	32844	32116	
819	0	32839	32252	
820	0	32880	32348	
821	0	32796	32386	
822	0	32785	32583	
823	0	32871	32588	
824	0	32748	32506	
825	0	32764	32567	
826	0	32738	32487	
827	0	32808	32466	
828	0	32780	32716	
829	0	32788	32670	
830	0	32790	32710	
831	0	32860	32674	
832	0	32900	32638	
833	0	32785	32748	
834	0	32752	32622	
835	0	32794	32348	
836	0	32760	32716	
837	0	32822	32999	
838	0	32758	32644	
839	0	32860	32563	
840	0	32812	32516	
841	0	32878	32647	
842	0	32760	32718	
843	0	32746	32621	
844	0	32788	32591	
845	0	32794	32482	
846	0	32864	32300	
847	0	32844	32263	
848	0	32724	32645	
849	0	32765	32326	
850	0	32766	31948	
851	0	32756	32196	
852	0	32866	32797	
853	0	32766	33159	
854	0	32804	32555	
855	0	32822	32030	
856	0	32808	31353	
857	0	32804	31463	
858	0	32740	31590	
859	0	32767	32373	
860	0	32792	32374	
861	0	32804	33522	
862	0	32800	33490	
863	0	32884	32942	
864	0	32780	32435	
865	0	32742	31842	
866	0	32796	32063	
867	0	32838	32317	
868	0	32820	32519	
869	0	32794	32543	
870	0	32785	32103	
871	0	32804	32382	
872	0	32849	32447	
873	0	32860	32775	
874	0	32828	32642	
875	0	32756	32591	
876	0	32804	32066	
877	0	32832	32063	
878	0	32794	32515	
879	0	32700	32692	
880	0	32786	32491	
881	0	32748	32647	
882	0	32774	32551	
883	0	32872	32663	
884	0	32911	32660	
885	0	32774	32643	
886	0	32887	32563	
887	0	32838	32557	
888	0	32878	32279	
889	0	32769	32231	
890	0	32785	31991	
891	0	32804	32194	
892	0	32790	32429	
893	0	32832	32359	
894	0	32770	32263	
895	0	32800	32355	
896	0	32787	32390	
897	0	32840	32570	
898	0	32822	32706	
899	0	32859	32537	
900	0	32728	32285	
901	0	32738	32188	
902	0	32800	32379	
903	0	32772	32418	
904	0	32780	32646	
905	0	32768	32581	
906	0	32768	32404	
907	0	32842	32199	
908	0	32808	32231	
909	0	32828	32367	
910	0	32738	32381	
911	0	32758	32647	
912	0	32788	32583	
913	0	32788	32515	
914	0	32752	32223	
915	0	32738	32203	
916	0	32640	32287	
917	0	32772	32319	
918	0	32656	32487	
919	0	32734	32572	
920	0	32742	32590	
921	0	32744	32499	
922	0	32804	32494	
923	0	32820	32399	
924	0	32736	32359	
925	0	32842	32302	
926	0	32900	32331	
927	0	32792	32279	
928	0	32732	32259	
929	0	32760	32351	
930	0	32792	32475	
931	0	32832	32554	
932	0	32856	32618	
933	0	32764	32634	
934	0	32878	32261	
935	0	32856	32444	
936	0	32876	32232	
937	0	32924	32206	
938	0	32972	32319	
939	0	33002	32593	
940	0	32964	32578	
941	0	32988	32447	
942	0	33120	32351	
943	0	33072	32255	
944	0	32934	32135	
945	0	32937	32167	
946	0	32900	32459	
947	0	32820	32622	
948	0	32757	32692	
949	0	32672	32388	
950	0	32636	32263	
951	0	32660	32247	
952	0	32708	32167	
953	0	32642	32168	
954	0	32608	32231	
955	0	32684	32331	
956	0	32680	32263	
957	0	32700	32198	
958	0	32712	32260	
959	0	32748	32255	
960	0	32676	32332	
961	0	32712	32374	
962	0	32762	32428	
963	0	32780	32615	
964	0	32836	32639	
965	0	32903	32587	
966	0	32846	32531	
967	0	32904	32401	
968	0	32816	32263	
969	0	32844	32130	
970	0	32812	32180	
971	0	32873	32187	
972	0	32846	32325	
973	0	32772	32263	
974	0	32822	32252	
975	0	32776	32508	
976	0	32766	32722	
977	0	32732	32654	
978	0	32836	32622	
979	0	32719	32548	
980	0	32752	32551	
981	0	32758	32551	
982	0	32799	32636	
983	0	32828	32593	
984	0	32772	32583	
985	0	32910	32743	
986	0	32872	32677	
987	0	32834	32187	
988	0	32840	31998	
989	0	32852	31815	
990	0	32776	32030	
991	0	32730	32519	
992	0	32744	32887	
993	0	32760	32775	
994	0	32772	32615	
995	0	32800	32359	
996	0	32724	31239	
997	0	32790	31055	
998	0	32756	31163	
999	0	32758	32711	
1000	0	32808	33594	
1001	0	32788	33110	
1002	0	32812	33179	
1003	0	32752	32453	
1004	0	32848	32477	
1005	0	32836	33186	
1006	0	32748	32869	
1007	0	32876	32570	
1008	0	32776	32543	
1009	0	32808	32343	
1010	0	32766	32843	
1011	0	32828	32921	
1012	0	32828	32599	
1013	0	32792	32886	
1014	0	32692	32503	
1015	0	32824	31721	
1016	0	32832	31559	
1017	0	32736	31892	
1018	0	32836	32571	
1019	0	32726	32750	
1020	0	32780	32210	
1021	0	32678	31966	
1022	0	32769	32460	
1023	0	32752	32519	
1024	0	32856	32599	
1025	0	32792	32263	
1026	0	32768	32490	
1027	0	32708	32879	
1028	0	32724	32356	
1029	0	32697	32559	
1030	0	32784	32412	
1031	0	32788	32196	
1032	0	32716	32604	
1033	0	32736	32135	
1034	0	32794	32463	
1035	0	32738	32292	
1036	0	32760	32431	
1037	0	32692	32230	
1038	0	32772	32606	
1039	0	32888	32218	
1040	0	32988	32614	
1041	0	32960	32184	
1042	0	33081	32540	
1043	0	33103	32280	
1044	0	32990	32343	
1045	0	33101	32572	
1046	0	33044	32358	
1047	0	32997	32590	
1048	0	33024	32351	
1049	0	33022	32486	
1050	0	33060	32485	
1051	0	33108	32391	
1052	0	33008	32319	
1053	0	33120	32587	
1054	0	33258	32215	
1055	0	33200	32439	
1056	0	33160	32199	
1057	0	33124	32538	
1058	0	33180	32202	
1059	0	33220	32607	
1060	0	32888	32131	
1061	0	32844	32663	
1062	0	32872	32375	
1063	0	32752	32442	
1064	0	32718	32247	
1065	0	32652	32519	
1066	0	32642	32334	
1067	0	32482	32431	
1068	0	32348	32455	
1069	0	32326	32505	
1070	0	32270	32960	
1071	0	32132	32391	
1072	0	32116	32359	
1073	0	32214	33046	
1074	0	32318	32606	
1075	0	32412	32712	
1076	0	32309	32359	
1077	0	32284	32155	
1078	0	32222	32135	
1079	0	32308	32436	
1080	0	32372	32487	
1081	0	32380	32391	
1082	0	32452	32542	
1083	0	32652	32823	
1084	0	32762	32838	
1085	0	32852	32367	
1086	0	32744	32365	
1087	0	32744	32327	
1088	0	32844	32197	
1089	0	32892	32351	
1090	0	32940	32388	
1091	0	33040	32422	
1092	0	32999	32314	
1093	0	33020	32263	
1094	0	32950	32263	
1095	0	32928	32762	
1096	0	32900	32614	
1097	0	32958	32476	
1098	0	32966	32421	
1099	0	32991	32255	
1100	0	32992	32153	
1101	0	33020	32106	
1102	0	32976	31911	
1103	0	32864	32238	
1104	0	32956	32071	
1105	0	32870	32331	
1106	0	32890	32591	
1107	0	32784	32695	
1108	0	32912	32329	
1109	0	32808	31946	
1110	0	32832	32059	
1111	0	32932	32263	
1112	0	32816	32207	
1113	0	32832	32199	
1114	0	32842	32199	
1115	0	32852	32171	
1116	0	32780	32501	
1117	0	32768	32903	
1118	0	32828	32484	
1119	0	32832	32423	
1120	0	32852	32003	
1121	0	32820	32127	
1122	0	32796	32620	
1123	0	32817	32711	
1124	0	32836	32687	
1125	0	32784	32535	
1126	0	32780	32420	
1127	0	32864	31831	
1128	0	32821	31855	
1129	0	32824	32928	
1130	0	32812	32830	
1131	0	32788	32087	
1132	0	32700	31974	
1133	0	32734	31507	
1134	0	32836	31599	
1135	0	32810	32135	
1136	0	32820	32933	
1137	0	32945	32956	
1138	0	32676	32683	
1139	0	32694	32308	
1140	0	32858	32607	
1141	0	32790	32747	
1142	0	32764	32647	
1143	0	32852	32917	
1144	0	32865	32979	
1145	0	32776	32839	
1146	0	32910	32661	
1147	0	32836	32402	
1148	0	32828	32620	
1149	0	32792	32746	
1150	0	32770	32641	
1151	0	32740	32518	
1152	0	32900	32473	
1153	0	32752	32413	
1154	0	32826	32539	
1155	0	32800	32191	
1156	0	32828	32551	
1157	0	32764	32476	
1158	0	32885	32151	
1159	0	32872	32582	
1160	0	32788	32391	
1161	0	32808	32364	
1162	0	32742	32286	
1163	0	32754	32519	
1164	0	32732	32506	
1165	0	32846	32279	
1166	0	32866	32135	
1167	0	32800	32263	
1168	0	32724	32251	
1169	0	32748	32543	
1170	0	32761	32588	
1171	0	32814	32501	
1172	0	32772	32628	
1173	0	32770	32519	
1174	0	32808	32255	
1175	0	32816	32687	
1176	0	32872	32534	
1177	0	32892	32344	
1178	0	32868	32098	
1179	0	32816	32775	
1180	0	32772	32982	
1181	0	32744	32515	
1182	0	32832	31994	
1183	0	32788	32178	
1184	0	32740	32300	
1185	0	32835	32330	
1186	0	32792	32431	
1187	0	32732	32543	
1188	0	32844	32630	
1189	0	32860	32647	
1190	0	32775	32519	
1191	0	32780	32263	
1192	0	32774	31468	
1193	0	32808	31951	
1194	0	32824	32354	
1195	0	32870	32383	
1196	0	32742	32519	
1197	0	32735	32225	
1198	0	32732	32412	
1199	0	32782	32519	
1200	0	32832	32342	
1201	0	32884	32390	
1202	0	32822	32389	
1203	0	32789	32235	
1204	0	32860	31860	
1205	0	32876	32391	
1206	0	32820	32717	
1207	0	32794	32551	
1208	0	32726	32704	
1209	0	32816	32228	
1210	0	32772	32115	
1211	0	32780	32455	
1212	0	32766	32412	
1213	0	32748	32327	
1214	0	32824	32498	
1215	0	32928	32550	
1216	0	32775	32597	
1217	0	32772	32415	
1218	0	32734	32412	
1219	0	32748	32591	
1220	0	32808	32668	
1221	0	32714	32615	
1222	0	32788	32623	
1223	0	32868	32573	
1224	0	32862	32422	
1225	0	32836	32308	
1226	0	32830	32294	
1227	0	32836	32299	
1228	0	32752	32606	
1229	0	32804	32647	
1230	0	32822	32462	
1231	0	32828	32309	
1232	0	32845	32452	
1233	0	32734	32636	
1234	0	32727	32756	
1235	0	32775	32575	
1236	0	32844	32488	
1237	0	32728	32495	
1238	0	32836	32383	
1239	0	32736	32273	
1240	0	32860	32287	
1241	0	32761	32317	
1242	0	32808	32478	
1243	0	32849	31905	
1244	0	32814	32299	
1245	0	32772	32770	
1246	0	32748	32679	
1247	0	32808	32611	
1248	0	32836	32646	
1249	0	32824	32567	
1250	0	32820	32345	
1251	0	32874	32118	
1252	0	32792	32086	
1253	0	32796	32236	
1254	0	32844	32323	
1255	0	32800	32404	
1256	0	32798	32435	
1257	0	32763	32620	
1258	0	32758	32563	
1259	0	32780	32710	
1260	0	32808	32402	
1261	0	32821	32233	
1262	0	32852	32257	
1263	0	32806	32460	
1264	0	32836	32564	
1265	0	32836	32683	
1266	0	32712	32716	
1267	0	32788	32678	
1268	0	32874	32604	
1269	0	32740	32439	
1270	0	32856	32367	
1271	0	32802	32220	
1272	0	32768	32292	
1273	0	32768	32519	
1274	0	32862	32542	
1275	0	32768	32246	
1276	0	32798	32198	
1277	0	32772	32212	
1278	0	32980	32334	
1279	0	32766	32379	
1280	0	32816	32335	
1281	0	32855	32337	
1282	0	32802	32306	
1283	0	32820	32380	
1284	0	32872	32478	
1285	0	32708	32446	
1286	0	32712	32519	
1287	0	32740	32638	
1288	0	32768	32503	
1289	0	32738	32434	
1290	0	32828	32415	
1291	0	32882	32174	
1292	0	32812	31780	
1293	0	32789	32330	
1294	0	32782	32238	
1295	0	32812	32255	
1296	0	32892	33207	
1297	0	32694	33111	
1298	0	32704	32663	
1299	0	32790	32340	
1300	0	32854	32199	
1301	0	32764	32647	
1302	0	32760	32615	
1303	0	32808	32775	
1304	0	32814	32847	
1305	0	32862	32719	
1306	0	32809	32537	
1307	0	32774	31918	
1308	0	32842	32102	
1309	0	32774	32206	
1310	0	32802	32412	
1311	0	32836	32476	
1312	0	32798	32399	
1313	0	32874	32263	
1314	0	32730	32412	
1315	0	32758	32635	
1316	0	32780	32890	
1317	0	32809	32735	
1318	0	32848	32418	
1319	0	32740	32121	
1320	0	32816	32200	
1321	0	32831	32295	
1322	0	32778	32127	
1323	0	32822	32364	
1324	0	32801	32846	
1325	0	32836	32533	
1326	0	32817	32447	
1327	0	32832	32263	
1328	0	32828	32343	
1329	0	32800	32591	
1330	0	32870	32418	
1331	0	32831	32367	
1332	0	32704	32623	
1333	0	32744	32831	
1334	0	32813	32711	
1335	0	32824	32603	
1336	0	32806	32543	
1337	0	32800	32327	
1338	0	32862	32224	
1339	0	32868	32175	
1340	0	32788	32247	
1341	0	32864	32231	
1342	0	32768	32309	
1343	0	32814	32408	
1344	0	32710	32738	
1345	0	32712	32887	
1346	0	32834	32639	
1347	0	32878	32645	
1348	0	32760	32129	
1349	0	32772	32597	
1350	0	32776	32253	
1351	0	32808	32672	
1352	0	32820	32190	
1353	0	32788	32506	
1354	0	32758	32177	
1355	0	32908	32660	
1356	0	32769	32231	
1357	0	32858	32596	
1358	0	32896	32604	
1359	0	32884	32039	
1360	0	32780	32541	
1361	0	32804	32377	
1362	0	32788	32188	
1363	0	32808	32822	
1364	0	32772	32220	
1365	0	32788	32166	
1366	0	32756	32711	
1367	0	32750	32263	
1368	0	32772	32414	
1369	0	32744	32159	
1370	0	32775	32071	
1371	0	32764	31951	
1372	0	32728	32085	
1373	0	32774	32319	
1374	0	32922	32437	
1375	0	32798	32519	
1376	0	32772	32518	
1377	0	32886	32535	
1378	0	32868	32640	
1379	0	32842	32647	
1380	0	32764	32628	
1381	0	32796	32775	
1382	0	32850	32247	
1383	0	32820	31798	
1384	0	32789	32244	
1385	0	32932	32719	
1386	0	32748	32591	
1387	0	32762	32930	
1388	0	32816	32474	
1389	0	32815	32130	
1390	0	32775	32684	
1391	0	32838	32263	
1392	0	32788	32893	
1393	0	32800	32289	
1394	0	32832	32007	
1395	0	32788	32199	
1396	0	32780	32471	
1397	0	32762	32204	
1398	0	32772	32187	
1399	0	32804	32298	
1400	0	32735	32225	
1401	0	32730	32253	
1402	0	32836	32446	
1403	0	32876	32500	
1404	0	32840	32631	
1405	0	32798	32599	
1406	0	32788	32567	
1407	0	32796	32407	
1408	0	32786	32303	
1409	0	32816	32286	
1410	0	32764	32150	
1411	0	32788	32283	
1412	0	32906	32239	
1413	0	32808	32287	
1414	0	32784	32319	
1415	0	32728	32303	
1416	0	32870	32371	
1417	0	32828	32406	
1418	0	32775	32415	
1419	0	32815	32550	
1420	0	32886	32486	
1421	0	32838	32345	
1422	0	32736	32359	
1423	0	32756	32415	
1424	0	32847	32554	
1425	0	32860	32503	
1426	0	32824	32687	
1427	0	32820	32620	
1428	0	32772	32295	
1429	0	32748	32512	
1430	0	32800	32515	
1431	0	32800	32263	
1432	0	32736	31616	
1433	0	32821	31832	
1434	0	32832	32570	
1435	0	32788	32556	
1436	0	32772	32433	
1437	0	32820	32511	
1438	0	32826	32618	
1439	0	32842	32566	
1440	0	32854	32487	
1441	0	32900	32543	
1442	0	32792	32991	
1443	0	32828	32887	
1444	0	32720	32547	
1445	0	32716	32362	
1446	0	32890	32234	
1447	0	32822	32167	
1448	0	32694	31871	
1449	0	32754	32311	
1450	0	32826	32581	
1451	0	32775	32626	
1452	0	32858	32559	
1453	0	32756	32583	
1454	0	32856	32223	
1455	0	32812	32247	
1456	0	32835	32375	
1457	0	32820	32364	
1458	0	32760	32290	
1459	0	32736	32174	
1460	0	32772	32319	
1461	0	32836	32351	
1462	0	32764	32391	
1463	0	32782	32526	
1464	0	32804	32202	
1465	0	32936	32159	
1466	0	32804	32511	
1467	0	32830	32220	
1468	0	32860	32572	
1469	0	32752	32124	
1470	0	32766	32765	
1471	0	32870	32375	
1472	0	32752	32515	
1473	0	32780	32477	
1474	0	32764	32444	
1475	0	32770	32251	
1476	0	32820	32116	
1477	0	32844	32122	
1478	0	32790	32258	
1479	0	32722	32179	
1480	0	32730	32135	
1481	0	32844	32119	
1482	0	32884	32069	
1483	0	32860	32290	
1484	0	32732	32116	
1485	0	32708	32219	
1486	0	32753	32324	
1487	0	32816	32467	
1488	0	32884	32418	
1489	0	32743	32311	
1490	0	32764	32130	
1491	0	32806	32362	
1492	0	32756	32135	
1493	0	32842	32254	
1494	0	32778	32224	
1495	0	32806	32597	
1496	0	32736	32183	
1497	0	32805	32159	
1498	0	32788	32839	
1499	0	32840	32657	
1500	0	32860	32727	
1501	0	32817	32571	
1502	0	32744	32359	
1503	0	32708	32431	
1504	0	32796	32300	
1505	0	32786	32351	
1506	0	32840	31751	
1507	0	32870	32262	
1508	0	32870	32263	
1509	0	32710	32866	
1510	0	32712	32478	
1511	0	32768	32351	
1512	0	32873	32404	
1513	0	32804	32354	
1514	0	32801	32430	
1515	0	32868	32191	
1516	0	32682	32671	
1517	0	32848	32204	
1518	0	32840	32567	
1519	0	32784	32426	
1520	0	32836	32235	
1521	0	32800	32570	
1522	0	32804	32308	
1523	0	32716	32611	
1524	0	32796	32244	
1525	0	32804	32686	
1526	0	32784	32186	
1527	0	32744	32629	
1528	0	32780	32335	
1529	0	32756	32496	
1530	0	32804	32639	
1531	0	32804	32599	
1532	0	32740	32591	
1533	0	32870	32655	
1534	0	32769	32573	
1535	0	32800	32510	
1536	0	32836	32398	
1537	0	32846	32294	
1538	0	32856	32292	
1539	0	32798	32306	
1540	0	32770	32287	
1541	0	32820	32315	
1542	0	32804	32390	
1543	0	32836	32580	
1544	0	32745	32675	
1545	0	32818	32719	
1546	0	32724	32668	
1547	0	32834	32754	
1548	0	32756	32519	
1549	0	32836	32502	
1550	0	32799	32263	
1551	0	32732	32187	
1552	0	32860	32391	
1553	0	32810	32423	
1554	0	32720	32503	
1555	0	32798	32357	
1556	0	32756	32374	
1557	0	32836	32263	
1558	0	32740	31782	
1559	0	32844	31610	
1560	0	32820	31878	
1561	0	32768	32503	
1562	0	32814	32547	
1563	0	32808	32444	
1564	0	32812	32348	
1565	0	32860	31917	
1566	0	32805	32636	
1567	0	32822	32799	
1568	0	32756	32623	
1569	0	32748	32839	
1570	0	32820	32263	
1571	0	32768	32687	
1572	0	32795	32115	
1573	0	32808	32519	
1574	0	32794	31887	
1575	0	32874	32235	
1576	0	32810	32295	
1577	0	32752	32645	
1578	0	32812	32425	
1579	0	32845	32287	
1580	0	32842	32358	
1581	0	32852	32710	
1582	0	32910	32225	
1583	0	32717	32583	
1584	0	32732	32580	
1585	0	32794	32199	
1586	0	32860	32647	
1587	0	32788	32357	
1588	0	32820	32535	
1589	0	32788	32433	
1590	0	32868	32165	
1591	0	32786	32455	
1592	0	32828	32451	
1593	0	32766	31875	
1594	0	32846	32068	
1595	0	32794	32454	
1596	0	32796	32530	
1597	0	32802	32444	
1598	0	32780	32519	
1599	0	32848	32770	
1600	0	32765	32746	
1601	0	32748	32335	
1602	0	32780	32647	
1603	0	32812	32767	
1604	0	32788	32349	
1605	0	32884	31879	
1606	0	32868	32386	
1607	0	32834	32546	
1608	0	32794	32327	
1609	0	32742	32250	
1610	0	32735	32493	
1611	0	32736	32519	
1612	0	32769	32415	
1613	0	32746	32686	
1614	0	32712	32263	
1615	0	32789	31943	
1616	0	32718	32300	
1617	0	32670	32183	
1618	0	32876	32448	
1619	0	32726	32194	
1620	0	32768	32821	
1621	0	32696	32658	
1622	0	32808	32595	
1623	0	32682	32499	
1624	0	32788	32122	
1625	0	32729	32414	
1626	0	32772	32363	
1627	0	32778	32551	
1628	0	32832	32511	
1629	0	32784	32465	
1630	0	32948	32439	
1631	0	32940	32597	
1632	0	32800	32514	
1633	0	32774	32164	
1634	0	32748	32476	
1635	0	32676	32791	
1636	0	32736	32660	
1637	0	32844	32668	
1638	0	32814	32325	
1639	0	32864	31967	
1640	0	32906	32146	
1641	0	32916	32487	
1642	0	32980	32455	
1643	0	32896	32341	
1644	0	32900	32647	
1645	0	32992	32750	
1646	0	32928	32471	
1647	0	32988	32263	
1648	0	33092	32079	
1649	0	33004	32391	
1650	0	32916	32298	
1651	0	32878	32242	
1652	0	32812	32903	
1653	0	32840	32359	
1654	0	32740	32371	
1655	0	32702	32151	
1656	0	32634	32039	
1657	0	32598	32141	
1658	0	32612	32071	
1659	0	32620	32539	
1660	0	32614	32687	
1661	0	32560	32574	
1662	0	32728	32363	
1663	0	32732	32262	
1664	0	32712	32295	
1665	0	32732	32455	
1666	0	32759	32722	
1667	0	32766	32647	
1668	0	32842	32519	
1669	0	32840	32574	
1670	0	32946	32615	
1671	0	32908	32662	
1672	0	32772	32263	
1673	0	32818	32503	
1674	0	32840	32222	
1675	0	32760	31794	
1676	0	32804	32436	
1677	0	32797	32546	
1678	0	32904	31981	
1679	0	32852	32327	
1680	0	32754	32647	
1681	0	32794	32755	
1682	0	32878	32787	
1683	0	32728	32705	
1684	0	32708	32454	
1685	0	32816	32516	
1686	0	32820	32175	
1687	0	32834	32391	
1688	0	32814	32436	
1689	0	32847	32486	
1690	0	32814	32397	
1691	0	32816	32159	
1692	0	32820	31973	
1693	0	32767	31845	
1694	0	32750	32070	
1695	0	32740	32396	
1696	0	32848	32479	
1697	0	32768	32591	
1698	0	32808	32629	
1699	0	32820	32407	
1700	0	32805	32372	
1701	0	32816	32374	
1702	0	32824	32335	
1703	0	32774	32479	
1704	0	32799	32593	
1705	0	32832	32623	
1706	0	32828	32604	
1707	0	32744	32674	
1708	0	32786	32501	
1709	0	32740	32571	
1710	0	32756	32372	
1711	0	32788	32362	
1712	0	32834	32327	
1713	0	32810	32234	
1714	0	32751	32693	
1715	0	32834	32212	
1716	0	32766	32541	
1717	0	32792	32198	
1718	0	32808	32319	
1719	0	32748	32423	
1720	0	32775	32406	
1721	0	32848	32391	
1722	0	32728	32423	
1723	0	32866	32467	
1724	0	32808	32412	
1725	0	32766	32363	
1726	0	32700	32415	
1727	0	32728	32380	
1728	0	32798	32679	
1729	0	32718	32692	
1730	0	32780	32558	
1731	0	32842	32560	
1732	0	32758	32518	
1733	0	32760	32551	
1734	0	32672	32546	
1735	0	32843	32611	
1736	0	32724	32628	
1737	0	32672	32195	
1738	0	32673	32519	
1739	0	32656	32366	
1740	0	32682	32427	
1741	0	32740	32679	
1742	0	32704	32167	
1743	0	32805	32575	
1744	0	32982	32310	
1745	0	33028	32479	
1746	0	33068	32221	
1747	0	33194	32727	
1748	0	33080	32295	
1749	0	33028	32559	
1750	0	33120	32959	
1751	0	33064	32935	
1752	0	32960	32391	
1753	0	32983	32137	
1754	0	33036	31584	
1755	0	33088	31866	
1756	0	33076	32007	
1757	0	33077	33346	
1758	0	33156	33098	
1759	0	33140	32629	
1760	0	33176	32463	
1761	0	33068	32209	
1762	0	32988	31468	
1763	0	33064	32252	
1764	0	32968	32359	
1765	0	32770	33103	
1766	0	32700	32462	
1767	0	32738	32487	
1768	0	32824	32517	
1769	0	32768	32719	
1770	0	32670	32222	
1771	0	32624	32619	
1772	0	32556	32091	
1773	0	32353	32279	
1774	0	32244	32183	
1775	0	32247	32885	
1776	0	32262	32630	
1777	0	32230	32345	
1778	0	32285	32370	
1779	0	32276	32439	
1780	0	32407	32391	
1781	0	32436	32567	
1782	0	32451	32674	
1783	0	32380	32589	
1784	0	32388	32583	
1785	0	32422	32558	
1786	0	32450	32559	
1787	0	32460	32663	
1788	0	32540	32607	
1789	0	32648	32639	
1790	0	32740	32458	
1791	0	32825	32568	
1792	0	32856	32589	
1793	0	32956	32636	
1794	0	32932	32450	
1795	0	32996	32231	
1796	0	33048	32263	
1797	0	33062	32879	
1798	0	33020	32578	
1799	0	32893	32187	
1800	0	32929	32223	
1801	0	32886	31967	
1802	0	32948	32007	
1803	0	32990	32629	
1804	0	33000	32586	
1805	0	32996	32583	
1806	0	32980	32775	
1807	0	32892	32724	
1808	0	32876	32655	
1809	0	32948	32543	
1810	0	32908	32412	
1811	0	32892	32471	
1812	0	32784	32495	
1813	0	32860	32502	
1814	0	32908	32526	
1815	0	32856	32196	
1816	0	32770	32046	
1817	0	32860	32103	
1818	0	32860	32238	
1819	0	32864	32319	
1820	0	32829	32174	
1821	0	32814	32246	
1822	0	32760	32584	
1823	0	32794	32590	
1824	0	32847	32519	
1825	0	32870	32582	
1826	0	32759	32327	
1827	0	32908	31990	
1828	0	32806	32166	
1829	0	32884	32429	
1830	0	32766	32655	
1831	0	32882	32638	
1832	0	32846	32511	
1833	0	32784	32766	
1834	0	32826	32627	
1835	0	32822	32327	
1836	0	32801	32164	
1837	0	32756	32231	
1838	0	32764	31815	
1839	0	32884	32238	
1840	0	32828	32554	
1841	0	32801	32647	
1842	0	32694	32532	
1843	0	32788	32959	
1844	0	32832	33102	
1845	0	32812	32994	
1846	0	32820	32402	
1847	0	32884	32551	
1848	0	32784	32388	
1849	0	32858	32439	
1850	0	32842	32263	
1851	0	32772	31899	
1852	0	32782	32195	
1853	0	32768	32433	
1854	0	32812	32247	
1855	0	32768	32162	
1856	0	32730	32079	
1857	0	32788	32340	
1858	0	32804	32495	
1859	0	32809	32551	
1860	0	32800	32711	
1861	0	32772	32635	
1862	0	32872	32545	
1863	0	32748	32511	
1864	0	32788	32468	
1865	0	32736	32516	
1866	0	32840	32799	
1867	0	32840	32619	
1868	0	32794	32506	
1869	0	32770	32587	
1870	0	32818	32623	
1871	0	32896	32411	
1872	0	32860	32314	
1873	0	32774	32077	
1874	0	32773	31746	
1875	0	32796	32444	
1876	0	32884	32391	
1877	0	32792	32374	
1878	0	32756	32695	
1879	0	32767	32604	
1880	0	32764	32615	
1881	0	32808	32807	
1882	0	32884	32916	
1883	0	32736	32727	
1884	0	32748	32662	
1885	0	32840	32460	
1886	0	32760	32007	
1887	0	32812	32564	
1888	0	32772	32588	
1889	0	32820	32380	
1890	0	32820	32199	
1891	0	32784	32255	
1892	0	32830	32359	
1893	0	32708	32335	
1894	0	32730	32446	
1895	0	32796	32487	
1896	0	32836	32538	
1897	0	32832	32351	
1898	0	32740	32189	
1899	0	32856	32129	
1900	0	32800	32263	
1901	0	32815	32331	
1902	0	32852	32253	
1903	0	32884	32359	
1904	0	32680	32740	
1905	0	32824	32763	
1906	0	32860	32455	
1907	0	32812	32591	
1908	0	32846	32775	
1909	0	32804	32620	
1910	0	32800	32295	
1911	0	32796	32047	
1912	0	32775	32380	
1913	0	32784	32766	
1914	0	32864	32573	
1915	0	32750	32423	
1916	0	32748	32391	
1917	0	32792	32503	
1918	0	32780	32479	
1919	0	32747	32381	
1920	0	32800	32309	
1921	0	32818	32047	
1922	0	32812	32135	
1923	0	32841	32020	
1924	0	32796	32612	
1925	0	32748	32737	
1926	0	32692	32539	
1927	0	32708	32739	
1928	0	32816	32663	
1929	0	32772	32615	
1930	0	32750	32693	
1931	0	32908	32503	
1932	0	32820	32703	
1933	0	32772	32967	
1934	0	32768	32815	
1935	0	32816	32806	
1936	0	32868	32574	
1937	0	32804	32503	
1938	0	32812	32663	
1939	0	32820	32535	
1940	0	32748	31831	
1941	0	32778	31342	
1942	0	32736	31732	
1943	0	32832	32544	
1944	0	32876	32671	
1945	0	32760	32415	
1946	0	32774	32661	
1947	0	32837	32871	
1948	0	32888	32519	
1949	0	32834	32385	
1950	0	32844	32466	
1951	0	32828	32299	
1952	0	32820	32647	
1953	0	32860	32167	
1954	0	32784	32574	
1955	0	32718	32236	
1956	0	32766	32543	
1957	0	32756	32421	
1958	0	32794	32430	
1959	0	32732	32241	
1960	0	32769	32143	
1961	0	32828	32294	
1962	0	32826	32364	
1963	0	32802	32391	
1964	0	32866	32514	
1965	0	32885	32679	
1966	0	32836	32359	
1967	0	32790	32412	
1968	0	32844	32412	
1969	0	32832	32286	
1970	0	32788	32343	
1971	0	32788	32362	
1972	0	32804	32391	
1973	0	32894	32452	
1974	0	32826	32455	
1975	0	32774	32316	
1976	0	32734	32066	
1977	0	32749	31623	
1978	0	32788	32259	
1979	0	32782	32531	
1980	0	32712	32508	
1981	0	32704	32567	
1982	0	32784	32575	
1983	0	32916	31943	
1984	0	32832	32479	
1985	0	32857	32799	
1986	0	32780	32963	
1987	0	32804	32166	
1988	0	32876	32561	
1989	0	32844	31892	
1990	0	32888	32230	
1991	0	32766	32199	
1992	0	32826	31879	
1993	0	32820	32255	
1994	0	32828	32991	
1995	0	32741	33079	
1996	0	32764	32809	
1997	0	32766	32706	
1998	0	32776	32719	
1999	0	32836	32639	
2000	0	32782	32633	
2001	0	32817	32607	
2002	0	32820	32550	
2003	0	32794	32511	
2004	0	32830	32612	
2005	0	32818	32540	
2006	0	32840	32556	
2007	0	32818	32646	
2008	0	32824	32559	
2009	0	32836	32511	
2010	0	32810	32455	
2011	0	32772	32499	
2012	0	32780	32639	
2013	0	32754	32583	
2014	0	32778	32614	
2015	0	32767	32419	
2016	0	32762	32172	
2017	0	32842	32348	
2018	0	32838	32540	
2019	0	32790	32382	
2020	0	32775	32660	
2021	0	32816	32759	
2022	0	32884	32743	
2023	0	32756	32185	
2024	0	32804	31534	
2025	0	32792	32159	
2026	0	32766	32434	
2027	0	32810	32500	
2028	0	32746	32346	
2029	0	32812	32333	
2030	0	32792	32485	
2031	0	32748	32348	
2032	0	32764	32359	
2033	0	32840	32566	
2034	0	32807	32488	
2035	0	32780	32484	
2036	0	32768	32471	
2037	0	32816	32919	
2038	0	32740	32860	
2039	0	32830	32647	
2040	0	32775	32703	
2041	0	32794	32471	
2042	0	32842	32287	
2043	0	32830	32407	
2044	0	32836	32454	
2045	0	32882	32180	
2046	0	32856	32693	
2047	0	32814	33078	
2048	0	32789	33064	
2049	0	32780	32679	
2050	0	32752	32682	
2051	0	32742	32631	
2052	0	32860	32699	
2053	0	32804	32503	
2054	0	32807	32411	
2055	0	32740	31708	
2056	0	32758	32197	
2057	0	32828	32402	
2058	0	32839	33149	
2059	0	32764	32663	
2060	0	32894	32879	
2061	0	32796	32242	
2062	0	32818	31937	
2063	0	32836	32132	
2064	0	32838	32079	
2065	0	32727	31749	
2066	0	32844	31918	
2067	0	32756	32478	
2068	0	32868	32690	
2069	0	32748	32687	
2070	0	32713	32570	
2071	0	32812	32740	
2072	0	32740	32751	
2073	0	32820	32580	
2074	0	32820	32613	
2075	0	32844	32599	
2076	0	32772	32641	
2077	0	32748	32583	
2078	0	32736	32497	
2079	0	32868	32513	
2080	0	32847	32263	
2081	0	32784	32550	
2082	0	32788	32700	
2083	0	32828	32607	
2084	0	32788	32583	
2085	0	32873	32618	
2086	0	32724	32603	
2087	0	32838	32255	
2088	0	32815	32835	
2089	0	32808	32318	
2090	0	32788	32607	
2091	0	32736	32269	
2092	0	32800	32516	
2093	0	32852	32517	
2094	0	32775	32199	
2095	0	32752	32383	
2096	0	32740	32254	
2097	0	32796	32352	
2098	0	32856	32583	
2099	0	32870	32763	
2100	0	32828	32655	
2101	0	32802	32430	
2102	0	32740	32438	
2103	0	32736	32708	
2104	0	32894	32212	
2105	0	32758	32257	
2106	0	32802	32294	
2107	0	32840	32218	
2108	0	32804	32247	
2109	0	32844	32494	
2110	0	32765	32578	
2111	0	32868	32718	
2112	0	32823	33058	
2113	0	32780	32486	
2114	0	32798	31549	
2115	0	32740	32754	
2116	0	32728	32463	
2117	0	32768	31750	
2118	0	32817	32750	
2119	0	32806	32567	
2120	0	32834	32839	
2121	0	32812	32245	
2122	0	32832	32415	
2123	0	32810	32436	
2124	0	32796	32700	
2125	0	32752	32749	
2126	0	32796	32494	
2127	0	32858	32226	
2128	0	32782	32204	
2129	0	32796	32111	
2130	0	32764	32219	
2131	0	32908	32666	
2132	0	32757	32702	
2133	0	32783	32453	
2134	0	32812	32431	
2135	0	32732	32711	
2136	0	32786	32615	
2137	0	32708	32121	
2138	0	32846	32207	
2139	0	32736	32366	
2140	0	32834	32228	
2141	0	32876	32431	
2142	0	32824	32655	
2143	0	32716	32751	
2144	0	32776	32540	
2145	0	32812	32414	
2146	0	32716	32323	
2147	0	32836	32246	
2148	0	32840	32231	
2149	0	32808	32047	
2150	0	32828	32540	
2151	0	32808	32717	
2152	0	32860	32635	
2153	0	32710	32605	
2154	0	32832	32710	
2155	0	32898	32643	
2156	0	32796	32476	
2157	0	32757	32196	
2158	0	32806	32263	
2159	0	32808	32590	
2160	0	32687	32511	
2161	0	32824	32455	
2162	0	32856	32178	
2163	0	32866	32466	
2164	0	32784	32455	
2165	0	32704	32202	
2166	0	32808	32564	
2167	0	32832	32155	
2168	0	32916	32498	
2169	0	32791	32146	
2170	0	32816	32514	
2171	0	32718	32703	
2172	0	32638	32475	
2173	0	32802	32855	
2174	0	32814	32311	
2175	0	32780	32245	
2176	0	32740	32228	
2177	0	32856	32235	
2178	0	32772	32879	
2179	0	32900	32637	
2180	0	32820	32847	
2181	0	32780	32183	
2182	0	32772	32711	
2183	0	32860	32540	
2184	0	32775	32561	
2185	0	32820	32279	
2186	0	32824	31919	
2187	0	32824	32263	
2188	0	32756	32180	
2189	0	32724	32325	
2190	0	32830	32099	
2191	0	32752	32628	
2192	0	32798	32567	
2193	0	32764	32309	
2194	0	32757	32556	
2195	0	32800	32092	
2196	0	32748	32287	
2197	0	32813	32679	
2198	0	32812	32471	
2199	0	32841	32773	
2200	0	32806	32685	
2201	0	32792	32231	
2202	0	32748	32438	
2203	0	32775	32377	
2204	0	32724	32429	
2205	0	32772	31414	
2206	0	32813	32076	
2207	0	32824	32639	
2208	0	32775	32346	
2209	0	32834	32380	
2210	0	32780	32519	
2211	0	32815	32663	
2212	0	32820	32570	
2213	0	32872	32462	
2214	0	32788	32487	
2215	0	32812	32501	
2216	0	32832	32279	
2217	0	32810	32191	
2218	0	32796	32228	
2219	0	32722	32182	
2220	0	32764	32164	
2221	0	32900	32232	
2222	0	32796	32342	
2223	0	32796	32341	
2224	0	32876	32338	
2225	0	32768	32439	
2226	0	32712	32295	
2227	0	32784	32375	
2228	0	32876	32423	
2229	0	32906	32582	
2230	0	32872	32593	
2231	0	32789	32562	
2232	0	32744	32608	
2233	0	32764	32615	
2234	0	32832	32414	
2235	0	32850	32291	
2236	0	32752	32204	
2237	0	32719	32185	
2238	0	32794	32519	
2239	0	32759	32596	
2240	0	32906	32695	
2241	0	32788	32391	
2242	0	32790	32356	
2243	0	32764	32191	
2244	0	32729	32391	
2245	0	32860	32711	
2246	0	32830	32715	
2247	0	32772	32354	
2248	0	32780	32254	
2249	0	32821	32519	
2250	0	32750	32547	
2251	0	32820	32442	
2252	0	32831	32159	
2253	0	32855	32206	
2254	0	32840	31775	
2255	0	32740	32007	
2256	0	32828	31926	
2257	0	32800	32247	
2258	0	32824	32519	
2259	0	32896	32114	
2260	0	32728	32691	
2261	0	32720	33207	
2262	0	32856	32966	
2263	0	32840	32702	
2264	0	32804	32453	
2265	0	32772	32293	
2266	0	32808	32231	
2267	0	32756	32135	
2268	0	32784	32215	
2269	0	32820	32566	
2270	0	32772	32388	
2271	0	32832	32455	
2272	0	32752	32359	
2273	0	32712	32545	
2274	0	32854	32783	
2275	0	32804	32911	
2276	0	32782	32471	
2277	0	32900	32119	
2278	0	32804	31744	
2279	0	32800	31991	
2280	0	32744	32357	
2281	0	32764	32122	
2282	0	32828	32775	
2283	0	32900	32700	
2284	0	32797	32655	
2285	0	32842	32326	
2286	0	32824	32215	
2287	0	32774	32123	
2288	0	32732	32551	
2289	0	32748	32654	
2290	0	32688	32755	
2291	0	32784	32794	
2292	0	32812	32431	
2293	0	32753	32263	
2294	0	32812	32155	
2295	0	32768	32383	
2296	0	32919	32294	
2297	0	32840	32795	
2298	0	32796	32535	
2299	0	32784	32564	
2300	0	32792	32508	
2301	0	32780	32358	
2302	0	32774	32422	
2303	0	32896	32588	
2304	0	32788	32580	
2305	0	32734	32412	
2306	0	32750	32422	
2307	0	32775	32338	
2308	0	32788	32186	
2309	0	32812	32132	
2310	0	32676	32151	
2311	0	32756	32127	
2312	0	32792	32191	
2313	0	32716	32258	
2314	0	32740	32375	
2315	0	32730	32448	
2316	0	32790	32492	
2317	0	32772	32518	
2318	0	32852	32947	
2319	0	32742	32879	
2320	0	32842	32106	
2321	0	32792	32341	
2322	0	32814	32399	
2323	0	32904	32190	
2324	0	32812	32094	
2325	0	32804	32164	
2326	0	32756	32247	
2327	0	32794	32383	
2328	0	32775	32363	
2329	0	32742	32418	
2330	0	32801	32502	
2331	0	32759	32716	
2332	0	32790	32626	
2333	0	32834	32365	
2334	0	33004	32773	
2335	0	32864	32007	
2336	0	32750	32218	
2337	0	32924	31943	
2338	0	32896	32095	
2339	0	32744	32546	
2340	0	32860	32388	
2341	0	33030	32682	
2342	0	33008	32460	
2343	0	33008	32319	
2344	0	32919	32236	
2345	0	32932	32263	
2346	0	32892	32233	
2347	0	32812	32164	
2348	0	32780	32316	
2349	0	32646	32147	
2350	0	32626	32103	
2351	0	32684	31965	
2352	0	32676	32298	
2353	0	32750	32487	
2354	0	32688	32118	
2355	0	32774	32021	
2356	0	32752	32071	
2357	0	32884	32694	
2358	0	32620	33286	
2359	0	32694	32726	
2360	0	32630	32049	
2361	0	32724	32285	
2362	0	32830	32494	
2363	0	32852	32387	
2364	0	32896	32686	
2365	0	32906	32654	
2366	0	32820	32663	
2367	0	32866	32370	
2368	0	32798	32083	
2369	0	32820	32816	
2370	0	32776	32284	
2371	0	32792	32278	
2372	0	32778	32423	
2373	0	32865	32375	
2374	0	32798	32339	
2375	0	32748	31743	
2376	0	32832	31822	
2377	0	32894	31807	
2378	0	32820	32508	
2379	0	32744	33063	
2380	0	32736	33124	
2381	0	32864	32815	
2382	0	32825	32583	
2383	0	32800	32414	
2384	0	32848	32443	
2385	0	32801	32223	
2386	0	32816	32303	
2387	0	32854	32415	
2388	0	32900	32446	
2389	0	32746	32204	
2390	0	32772	32580	
2391	0	32772	32186	
2392	0	32804	32614	
2393	0	32764	32623	
2394	0	32780	32631	
2395	0	32740	32598	
2396	0	32762	32671	
2397	0	32828	32655	
2398	0	32900	32663	
2399	0	32764	32672	
2400	0	32738	32567	
2401	0	32852	32502	
2402	0	32854	31924	
2403	0	32740	32156	
2404	0	32764	32679	
2405	0	32766	33070	
2406	0	32830	33311	
2407	0	32767	32772	
2408	0	32860	32578	
2409	0	32825	32495	
2410	0	32845	32319	
2411	0	32796	32755	
2412	0	32768	32866	
2413	0	32828	32303	
2414	0	32804	32511	
2415	0	32794	32101	
2416	0	32754	32114	
2417	0	32856	32630	
2418	0	32756	32439	
2419	0	32616	32724	
2420	0	32706	32263	
2421	0	32770	32396	
2422	0	32714	32468	
2423	0	32776	32444	
2424	0	32774	32658	
2425	0	32721	32319	
2426	0	32722	32388	
2427	0	32743	32629	
2428	0	32768	32692	
2429	0	32836	32673	
2430	0	32740	32750	
2431	0	32740	32887	
2432	0	32688	32506	
2433	0	32688	32670	
2434	0	32712	32805	
2435	0	32816	32515	
2436	0	32852	32495	
2437	0	32901	32047	
2438	0	32956	31534	
2439	0	33024	32511	
2440	0	32976	32815	
2441	0	33144	33055	
2442	0	32964	32927	
2443	0	32988	32630	
2444	0	32946	32591	
2445	0	32944	32580	
2446	0	32964	32591	
2447	0	33018	32620	
2448	0	33054	32382	
2449	0	33124	32220	
2450	0	33192	32516	
2451	0	33232	32310	
2452	0	33122	32590	
2453	0	33124	32615	
2454	0	33198	31900	
2455	0	33014	32263	
2456	0	32928	32383	
2457	0	32775	32627	
2458	0	32644	32599	
2459	0	32664	32629	
2460	0	32616	32981	
2461	0	32784	32119	
2462	0	32884	32034	
2463	0	32856	32915	
2464	0	32724	32935	
2465	0	32550	32683	
2466	0	32444	32455	
2467	0	32289	32519	
2468	0	32198	32381	
2469	0	32144	32604	
2470	0	32268	32958	
2471	0	32300	32879	
2472	0	32286	32740	
2473	0	32376	32007	
2474	0	32452	32096	
2475	0	32692	32479	
2476	0	32786	32111	
2477	0	32716	32327	
2478	0	32657	32693	
2479	0	32554	32639	
2480	0	32544	31871	
2481	0	32492	31665	
2482	0	32564	31743	
2483	0	32578	33003	
2484	0	32628	33228	
2485	0	32820	33019	
2486	0	32788	32615	
2487	0	32864	32246	
2488	0	32902	32164	
2489	0	32902	31933	
2490	0	32888	31849	
2491	0	32926	32111	
2492	0	33022	32366	
2493	0	33024	32327	
2494	0	32974	32086	
2495	0	32916	32143	
2496	0	32980	32263	
2497	0	33054	32325	
2498	0	32984	32559	
2499	0	32922	32606	
2500	0	32889	32580	
2501	0	32976	32111	
2502	0	32884	32166	
2503	0	32837	32420	
2504	0	32806	32238	
2505	0	32840	32706	
2506	0	32834	32572	
2507	0	32730	32207	
2508	0	32794	31950	
2509	0	32809	32167	
2510	0	32804	32424	
2511	0	32801	32567	
2512	0	32862	32559	
2513	0	32876	32595	
2514	0	32732	32679	
2515	0	32756	32679	
2516	0	32702	32642	
2517	0	32820	32662	
2518	0	32796	32678	
2519	0	32896	32940	
2520	0	32870	32919	
2521	0	32808	32562	
2522	0	32828	32077	
2523	0	32772	31971	
2524	0	32788	32279	
2525	0	32852	31988	
2526	0	32846	32108	
2527	0	32852	32679	
2528	0	32784	32823	
2529	0	32800	32419	
2530	0	32804	32508	
2531	0	32860	32699	
2532	0	32815	32391	
2533	0	32696	32081	
2534	0	32738	32156	
2535	0	32845	31958	
2536	0	32820	32159	
2537	0	32836	32354	
2538	0	32814	32313	
2539	0	32908	32222	
2540	0	32828	32407	
2541	0	32740	32647	
2542	0	32820	31921	
2543	0	32742	32300	
2544	0	32830	32789	
2545	0	32792	32742	
2546	0	32768	32516	
2547	0	32816	31717	
2548	0	32796	31701	
2549	0	32838	33110	
2550	0	32852	32996	
2551	0	32774	33075	
2552	0	32788	32775	
2553	0	32846	31745	
2554	0	32868	31903	
2555	0	32824	32334	
2556	0	32764	32359	
2557	0	32844	32519	
2558	0	32812	32806	
2559	0	32728	32667	
2560	0	32782	32599	
2561	0	32806	32615	
2562	0	32784	32231	
2563	0	32862	32128	
2564	0	32784	32549	
2565	0	32824	32391	
2566	0	32832	32135	
2567	0	32807	32252	
2568	0	32852	32900	
2569	0	32743	32555	
2570	0	32904	31751	
2571	0	32828	31650	
2572	0	32814	32401	
2573	0	32808	32167	
2574	0	32704	32412	
2575	0	32820	32445	
2576	0	32796	32934	
2577	0	32808	33071	
2578	0	32832	32994	
2579	0	32732	32903	
2580	0	32734	32551	
2581	0	32836	32415	
2582	0	32804	31959	
2583	0	32776	32391	
2584	0	32800	32605	
2585	0	32756	32343	
2586	0	32844	32339	
2587	0	32888	32436	
2588	0	32902	32519	
2589	0	32916	32839	
2590	0	32820	33074	
2591	0	32788	33047	
2592	0	32780	32410	
2593	0	32832	32298	
2594	0	32740	32870	
2595	0	32804	32184	
2596	0	32800	31915	
2597	0	32830	32527	
2598	0	32744	32410	
2599	0	32778	31879	
2600	0	32832	32399	
2601	0	32756	32128	
2602	0	32870	32846	
2603	0	32778	32775	
2604	0	32796	32726	
2605	0	32736	32455	
2606	0	32788	32031	
2607	0	32775	32588	
2608	0	32784	32556	
2609	0	32884	32399	
2610	0	32788	32750	
2611	0	32816	32735	
2612	0	32782	32391	
2613	0	32844	32377	
2614	0	32816	32132	
2615	0	32698	32615	
2616	0	32780	32380	
2617	0	32773	32348	
2618	0	32832	31363	
2619	0	32832	31796	
2620	0	32838	32647	
2621	0	32826	32775	
2622	0	32772	32763	
2623	0	32854	32348	
2624	0	32824	32503	
2625	0	32828	32261	
2626	0	32761	32201	
2627	0	32712	32655	
2628	0	32738	32295	
2629	0	32812	32511	
2630	0	32794	32700	
2631	0	32836	32287	
2632	0	32781	32583	
2633	0	32812	32467	
2634	0	32792	32327	
2635	0	32730	32676	
2636	0	32756	32657	
2637	0	32836	32675	
2638	0	32816	32614	
2639	0	32809	32647	
2640	0	32794	32481	
2641	0	32736	32327	
2642	0	32872	32733	
2643	0	32756	32999	
2644	0	32802	32667	
2645	0	32828	32356	
2646	0	32872	32343	
2647	0	32769	32325	
2648	0	32774	32359	
2649	0	32740	32260	
2650	0	32804	32247	
2651	0	32836	32407	
2652	0	32748	32503	
2653	0	32722	32443	
2654	0	32772	32462	
2655	0	32884	32350	
2656	0	32832	31386	
2657	0	32810	31607	
2658	0	32706	32959	
2659	0	32775	33285	
2660	0	32824	32491	
2661	0	32816	31972	
2662	0	32748	32135	
2663	0	32780	32879	
2664	0	32760	32767	
2665	0	32748	32643	
2666	0	32841	32487	
2667	0	32852	32211	
2668	0	32828	32127	
2669	0	32876	31687	
2670	0	32766	32775	
2671	0	32868	33251	
2672	0	32882	32190	
2673	0	32802	32327	
2674	0	32821	32710	
2675	0	32815	32167	
2676	0	32826	32479	
2677	0	32714	32530	
2678	0	32796	32125	
2679	0	32802	32303	
2680	0	32726	32500	
2681	0	32828	32319	
2682	0	32808	33060	
2683	0	32798	32926	
2684	0	32756	32435	
2685	0	32760	31991	
2686	0	32896	32167	
2687	0	32884	32263	
2688	0	32814	32116	
2689	0	32804	31687	
2690	0	32756	32420	
2691	0	32816	32588	
2692	0	32768	32813	
2693	0	32768	33076	
2694	0	32800	33223	
2695	0	32890	32482	
2696	0	32816	32301	
2697	0	32700	32259	
2698	0	32886	32292	
2699	0	32740	32516	
2700	0	32756	32775	
2701	0	32768	32738	
2702	0	32812	32469	
2703	0	32804	32263	
2704	0	32858	32338	
2705	0	32760	32300	
2706	0	32724	32068	
2707	0	32758	32590	
2708	0	32734	32126	
2709	0	32804	32103	
2710	0	32770	32160	
2711	0	32834	32508	
2712	0	32756	32615	
2713	0	32900	32550	
2714	0	32860	32383	
2715	0	32878	32111	
2716	0	32818	32359	
2717	0	32828	32583	
2718	0	32756	32639	
2719	0	32794	32426	
2720	0	32780	32495	
2721	0	32760	32391	
2722	0	32840	32406	
2723	0	32868	32663	
2724	0	32804	32263	
2725	0	32756	32647	
2726	0	32734	32463	
2727	0	32790	32316	
2728	0	32936	32165	
2729	0	32832	32445	
2730	0	32744	32591	
2731	0	32884	32547	
2732	0	32772	32318	
2733	0	32776	32583	
2734	0	32932	32263	
2735	0	32832	32175	
2736	0	32737	32228	
2737	0	32738	32609	
2738	0	32693	32679	
2739	0	32752	32614	
2740	0	32775	32342	
2741	0	32832	32339	
2742	0	32816	32149	
2743	0	32956	32290	
2744	0	32732	32163	
2745	0	32822	32386	
2746	0	32865	32502	
2747	0	32774	32364	
2748	0	32792	31513	
2749	0	32834	32310	
2750	0	32764	33111	
2751	0	32769	32087	
2752	0	32856	30686	
2753	0	32800	31024	
2754	0	32788	33410	
2755	0	32704	34631	
2756	0	32812	33726	
2757	0	32748	32287	
2758	0	32839	32022	
2759	0	32848	32166	
2760	0	32834	32577	
2761	0	32816	32439	
2762	0	32838	33191	
2763	0	32808	33486	
2764	0	32736	32903	
2765	0	32800	33644	
2766	0	32628	32383	
2767	0	32672	31484	
2768	0	32732	31210	
2769	0	32705	30991	
2770	0	32772	31014	
2771	0	32800	31229	
2772	0	32752	31948	
2773	0	32968	32726	
2774	0	32852	32855	
2775	0	32890	32890	
2776	0	32744	32911	
2777	0	32632	32853	
2778	0	32912	32631	
2779	0	32924	32198	
2780	0	32928	32599	
2781	0	32852	33159	
2782	0	32804	33083	
2783	0	32832	32919	
2784	0	32807	32724	
2785	0	32736	32725	
2786	0	32808	32701	
2787	0	32790	32526	
2788	0	32785	32495	
2789	0	32798	32542	
2790	0	32810	32727	
2791	0	32724	32671	
2792	0	32740	32599	
2793	0	32838	32599	
2794	0	32908	32607	
2795	0	32684	32623	
2796	0	32836	32531	
2797	0	32844	32422	
2798	0	32734	32358	
2799	0	32746	32463	
2800	0	32794	32487	
2801	0	32778	32519	
2802	0	32830	32436	
2803	0	32820	32320	
2804	0	32752	32135	
2805	0	32852	32191	
2806	0	32804	32183	
2807	0	32712	32231	
2808	0	32828	32182	
2809	0	32760	32175	
2810	0	32764	32235	
2811	0	32800	32231	
2812	0	32868	32255	
2813	0	32858	32301	
2814	0	32816	32308	
2815	0	32876	32263	
2816	0	32812	32231	
2817	0	32744	32300	
2818	0	32814	32255	
2819	0	32722	32205	
2820	0	32822	32308	
2821	0	32762	32252	
2822	0	32796	32235	
2823	0	32838	32190	
2824	0	32856	32213	
2825	0	32828	32391	
2826	0	32832	32615	
2827	0	32790	32623	
2828	0	32768	32351	
2829	0	32804	32247	
2830	0	32752	32199	
2831	0	32744	32440	
2832	0	32792	32636	
2833	0	32764	32671	
2834	0	32796	32639	
2835	0	32788	32455	
2836	0	32774	32372	
2837	0	32834	32639	
2838	0	32768	32483	
2839	0	32774	32287	
2840	0	32808	32338	
2841	0	32844	32263	
2842	0	32766	32167	
2843	0	32726	32318	
2844	0	32768	32477	
2845	0	32824	32604	
2846	0	32804	32662	
2847	0	32788	32487	
2848	0	32748	32354	
2849	0	32756	32262	
2850	0	32840	32167	
2851	0	32824	32263	
2852	0	32706	32339	
2853	0	32775	32519	
2854	0	32820	32308	
2855	0	32836	32460	
2856	0	32816	32486	
2857	0	32849	32350	
2858	0	32778	32458	
2859	0	32804	32538	
2860	0	32812	32367	
2861	0	32852	32284	
2862	0	32766	33023	
2863	0	32738	32423	
2864	0	32804	32711	
2865	0	32788	32105	
2866	0	32840	31571	
2867	0	32706	32325	
2868	0	32716	32242	
2869	0	32752	32303	
2870	0	32810	31879	
2871	0	32764	32359	
2872	0	32804	33155	
2873	0	32816	32739	
2874	0	32831	33770	
2875	0	32834	32346	
2876	0	32840	31639	
2877	0	32888	32289	
2878	0	32806	32233	
2879	0	32782	32519	
2880	0	32852	32634	
2881	0	32772	33055	
2882	0	32808	32383	
2883	0	32740	32037	
2884	0	32760	31726	
2885	0	32796	31511	
2886	0	32751	32486	
2887	0	32788	32479	
2888	0	32868	32231	
2889	0	32782	32193	
2890	0	32866	32263	
2891	0	32804	32446	
2892	0	32796	32402	
2893	0	32796	32340	
2894	0	32794	32291	
2895	0	32808	32389	
2896	0	32796	32516	
2897	0	32718	32287	
2898	0	32806	32164	
2899	0	32742	32199	
2900	0	32798	32143	
2901	0	32880	32119	
2902	0	32868	32166	
2903	0	32864	32145	
2904	0	32864	32172	
2905	0	32728	32319	
2906	0	32816	32223	
2907	0	32764	32561	
2908	0	32828	32238	
2909	0	32766	32647	
2910	0	32748	32140	
2911	0	32786	32460	
2912	0	32774	32207	
2913	0	32812	32199	
2914	0	32800	32436	
2915	0	32764	32647	
2916	0	32748	32663	
2917	0	32886	32686	
2918	0	32768	32451	
2919	0	32812	32348	
2920	0	32814	32316	
2921	0	32796	32199	
2922	0	32688	32263	
2923	0	32893	32362	
2924	0	32896	32612	
2925	0	32732	32341	
2926	0	32836	32719	
2927	0	32800	32263	
2928	0	32802	32690	
2929	0	32806	32308	
2930	0	32840	32500	
2931	0	32848	32253	
2932	0	32917	32076	
2933	0	32832	32599	
2934	0	32788	32444	
2935	0	32842	32389	
2936	0	32788	32225	
2937	0	32812	32311	
2938	0	32708	32548	
2939	0	32740	32263	
2940	0	32876	32504	
2941	0	32822	32663	
2942	0	32850	32305	
2943	0	32801	31919	
2944	0	32792	32379	
2945	0	32740	32263	
2946	0	32848	32763	
2947	0	32838	32903	
2948	0	32716	32295	
2949	0	32750	32244	
2950	0	32744	32687	
2951	0	32833	32519	
2952	0	32852	32498	
2953	0	32756	32687	
2954	0	32820	32191	
2955	0	32748	32484	
2956	0	32720	31571	
2957	0	32775	32119	
2958	0	32672	32581	
2959	0	32748	32884	
2960	0	32840	32775	
2961	0	32744	32463	
2962	0	32766	32303	
2963	0	32860	32116	
2964	0	32830	32103	
2965	0	32774	31959	
2966	0	32782	32118	
2967	0	32791	32287	
2968	0	32829	32316	
2969	0	32904	32327	
2970	0	32836	32319	
2971	0	32760	32143	
2972	0	32770	32231	
2973	0	32747	32583	
2974	0	32720	32447	
2975	0	32782	32508	
2976	0	32770	32503	
2977	0	32804	32287	
2978	0	32876	32500	
2979	0	32924	32506	
2980	0	32838	32647	
2981	0	32857	32630	
2982	0	32956	32582	
2983	0	32928	32451	
2984	0	32960	32303	
2985	0	33073	32346	
2986	0	33084	32388	
2987	0	32996	32500	
2988	0	32880	32135	
2989	0	32922	32023	
2990	0	32756	32546	
2991	0	32775	32630	
2992	0	32740	32471	
2993	0	32768	32282	
2994	0	32626	31983	
2995	0	32676	32071	
2996	0	32610	33254	
2997	0	32676	33070	
2998	0	32632	32399	
2999	0	32632	32334	
3000	0	32588	32423	
3001	0	32664	32287	
3002	0	32728	32596	
3003	0	32805	32694	
3004	0	32681	32487	
3005	0	32726	32236	
3006	0	32754	32235	
3007	0	32834	31975	
3008	0	32878	31991	
3009	0	32888	31964	
3010	0	32924	31887	
3011	0	32920	32794	
3012	0	32788	33031	
3013	0	32822	32546	
3014	0	32822	32511	
3015	0	32869	32343	
3016	0	32774	32339	
3017	0	32889	32372	
3018	0	32831	32735	
3019	0	32734	32986	
3020	0	32736	32183	
3021	0	32776	31877	
3022	0	32814	32354	
3023	0	32734	33280	
3024	0	32788	33067	
3025	0	32806	32714	
3026	0	32820	32679	
3027	0	32836	32610	
3028	0	32864	32639	
3029	0	32782	32671	
3030	0	32791	32612	
3031	0	32860	32542	
3032	0	32798	32548	
3033	0	32828	32620	
3034	0	32814	32554	
3035	0	32810	32601	
3036	0	32817	32623	
3037	0	32784	32647	
3038	0	32830	32596	
3039	0	32774	32674	
3040	0	32834	32710	
3041	0	32840	32629	
3042	0	32772	32475	
3043	0	32786	32455	
3044	0	32775	32549	
3045	0	32824	32743	
3046	0	32801	32681	
3047	0	32844	32639	
3048	0	32740	32583	
3049	0	32804	32583	
3050	0	32788	32647	
3051	0	32660	32540	
3052	0	32756	32383	
3053	0	32788	32377	
3054	0	32852	32255	
3055	0	32832	32243	
3056	0	32781	32308	
3057	0	32814	32415	
3058	0	32782	32615	
3059	0	32756	32647	
3060	0	32750	32566	
3061	0	32814	32618	
3062	0	32760	32388	
3063	0	32752	32383	
3064	0	32770	32231	
3065	0	32786	32295	
3066	0	32776	32244	
3067	0	32758	32282	
3068	0	32740	32263	
3069	0	32708	32303	
3070	0	32704	32235	
3071	0	32761	32171	
3072	0	32736	31604	
3073	0	32708	32108	
3074	0	32788	32835	
3075	0	32756	32436	
3076	0	32772	32024	
3077	0	32624	31935	
3078	0	32700	32263	
3079	0	32693	32243	
3080	0	32712	32411	
3081	0	32832	32094	
3082	0	32884	32560	
3083	0	32940	32891	
3084	0	32998	32623	
3085	0	33092	32207	
3086	0	33108	31684	
3087	0	33060	32346	
3088	0	33040	33354	
3089	0	32944	34116	
3090	0	33008	32511	
3091	0	32990	31802	
3092	0	33012	31711	
3093	0	32992	31303	
3094	0	33060	31703	
3095	0	33140	33127	
3096	0	33134	32479	
3097	0	33118	32406	
3098	0	33126	32919	
3099	0	33209	32405	
3100	0	33100	32804	
3101	0	33196	32262	
3102	0	33034	32175	
3103	0	32774	32486	
3104	0	32732	32423	
3105	0	32744	32287	
3106	0	32884	32191	
3107	0	32840	32455	
3108	0	32672	32732	
3109	0	32676	32586	
3110	0	32593	32580	
3111	0	32468	32279	
3112	0	32274	32462	
3113	0	32324	32431	
3114	0	32271	32538	
3115	0	32196	33188	
3116	0	32202	32939	
3117	0	32228	32711	
3118	0	32220	32454	
3119	0	32422	32386	
3120	0	32476	32131	
3121	0	32492	32263	
3122	0	32484	32675	
3123	0	32456	32575	
3124	0	32568	32418	
3125	0	32450	32492	
3126	0	32504	32526	
3127	0	32558	32217	
3128	0	32774	32352	
3129	0	32740	32566	
3130	0	32749	32444	
3131	0	32822	32311	
3132	0	32921	32327	
3133	0	32958	32263	
3134	0	32964	32239	
3135	0	33028	32165	
3136	0	33004	32190	
3137	0	33012	31961	
3138	0	32956	31976	
3139	0	33044	32333	
3140	0	33016	32670	
3141	0	32948	32702	
3142	0	32960	32479	
3143	0	33000	32571	
3144	0	32892	32694	
3145	0	32930	32183	
3146	0	32958	32583	
3147	0	32940	32303	
3148	0	32834	32500	
3149	0	32868	32455	
3150	0	32814	32492	
3151	0	32864	32679	
3152	0	32855	32621	
3153	0	32852	32252	
3154	0	32807	32644	
3155	0	32840	32183	
3156	0	32800	32543	
3157	0	32776	32414	
3158	0	32848	32391	
3159	0	32856	32587	
3160	0	32800	32310	
3161	0	32860	32564	
3162	0	32788	32399	
3163	0	32812	32637	
3164	0	32832	32173	
3165	0	32796	32474	
3166	0	32886	32383	
3167	0	32844	32263	
3168	0	32797	32543	
3169	0	32836	32194	
3170	0	32804	32623	
3171	0	32776	31967	
3172	0	32804	32990	
3173	0	32790	32791	
3174	0	32720	32775	
3175	0	32810	31510	
3176	0	32800	31990	
3177	0	32858	32367	
3178	0	32852	33135	
3179	0	32900	33092	
3180	0	32868	32804	
3181	0	32800	32507	
3182	0	32815	32519	
3183	0	32700	32466	
3184	0	32784	31439	
3185	0	32748	32407	
3186	0	32880	32635	
3187	0	32780	32160	
3188	0	32744	32579	
3189	0	32808	32542	
3190	0	32828	32170	
3191	0	32892	32494	
3192	0	32796	32227	
3193	0	32828	32364	
3194	0	32815	32741	
3195	0	32766	32503	
3196	0	32836	32308	
3197	0	32857	32239	
3198	0	32846	32263	
3199	0	32817	32352	
3200	0	32732	32383	
3201	0	32772	32343	
3202	0	32758	32210	
3203	0	32732	32409	
3204	0	32806	32825	
3205	0	32796	32862	
3206	0	32770	32476	
3207	0	32782	32608	
3208	0	32836	32471	
3209	0	32758	32330	
3210	0	32808	32355	
3211	0	32740	32038	
3212	0	32822	31836	
3213	0	32812	32070	
3214	0	32870	32951	
3215	0	32842	32887	
3216	0	32856	32559	
3217	0	32792	32367	
3218	0	32794	31991	
3219	0	32825	32175	
3220	0	32792	32356	
3221	0	32652	32287	
3222	0	32764	32327	
3223	0	32804	32383	
3224	0	32814	32386	
3225	0	32830	32495	
3226	0	32780	32636	
3227	0	32784	32535	
3228	0	32858	32399	
3229	0	32824	32327	
3230	0	32832	32499	
3231	0	32732	32346	
3232	0	32789	32159	
3233	0	32856	32121	
3234	0	32817	32108	
3235	0	32692	31508	
3236	0	32716	31654	
3237	0	32772	31964	
3238	0	32824	32804	
3239	0	32796	32991	
3240	0	32884	32770	
3241	0	32868	32547	
3242	0	32736	32401	
3243	0	32828	32405	
3244	0	32812	32415	
3245	0	32760	32404	
3246	0	32828	32423	
3247	0	32764	32318	
3248	0	32712	32318	
3249	0	32797	32198	
3250	0	32808	32527	
3251	0	32912	32638	
3252	0	32836	32642	
3253	0	32800	32620	
3254	0	32804	32724	
3255	0	32792	32631	
3256	0	32710	32519	
3257	0	32760	32189	
3258	0	32736	32512	
3259	0	32789	32025	
3260	0	32846	32103	
3261	0	32814	32590	
3262	0	32808	32852	
3263	0	32820	32775	
3264	0	32830	32439	
3265	0	32756	32284	
3266	0	32768	32359	
3267	0	32742	32254	
3268	0	32758	32334	
3269	0	32817	32623	
3270	0	32800	32334	
3271	0	32864	32263	
3272	0	32772	32263	
3273	0	32693	32110	
3274	0	32792	32446	
3275	0	32849	32944	
3276	0	32806	32516	
3277	0	32832	32487	
3278	0	32708	32554	
3279	0	32849	32518	
3280	0	32856	32519	
3281	0	32769	32418	
3282	0	32808	32146	
3283	0	32764	32252	
3284	0	32784	32067	
3285	0	32718	32373	
3286	0	32818	32199	
3287	0	32770	32493	
3288	0	32792	32675	
3289	0	32821	32708	
3290	0	32776	32567	
3291	0	32862	32456	
3292	0	32844	32551	
3293	0	32790	32567	
3294	0	32774	32759	
3295	0	32756	32647	
3296	0	32708	32478	
3297	0	32897	32358	
3298	0	32900	32463	
3299	0	32880	32412	
3300	0	32816	32241	
3301	0	32740	32647	
3302	0	32772	33222	
3303	0	32766	33191	
3304	0	32756	32467	
3305	0	32804	31910	
3306	0	32872	32687	
3307	0	32870	32375	
3308	0	32960	32559	
3309	0	32820	32805	
3310	0	32788	32908	
3311	0	32746	33138	
3312	0	32759	32802	
3313	0	32804	32407	
3314	0	32740	32287	
3315	0	32792	32375	
3316	0	32862	32304	
3317	0	32764	31751	
3318	0	32756	31828	
3319	0	32864	31979	
3320	0	32768	32479	
3321	0	32792	33179	
3322	0	32792	33039	
3323	0	32800	32817	
3324	0	32740	32335	
3325	0	32840	32617	
3326	0	32830	32977	
3327	0	32740	32817	
3328	0	32802	32572	
3329	0	32752	32223	
3330	0	32756	32279	
3331	0	32830	32302	
3332	0	32773	32069	
3333	0	32810	32283	
3334	0	32775	32306	
3335	0	32814	32341	
3336	0	32843	32420	
3337	0	32944	32443	
3338	0	32858	32215	
3339	0	32816	32213	
3340	0	32796	32319	
3341	0	32775	32415	
3342	0	32812	32622	
3343	0	32788	32647	
3344	0	32736	32694	
3345	0	32792	32598	
3346	0	32798	32559	
3347	0	32781	32503	
3348	0	32864	32508	
3349	0	32774	32169	
3350	0	32782	32205	
3351	0	32764	32211	
3352	0	32796	32655	
3353	0	32850	32475	
3354	0	32876	32172	
3355	0	32764	32383	
3356	0	32830	32598	
3357	0	32814	32255	
3358	0	32657	32308	
3359	0	32709	32582	
3360	0	32796	32383	
3361	0	32758	32212	
3362	0	32788	32575	
3363	0	32740	32628	
3364	0	32832	32194	
3365	0	32817	32442	
3366	0	32860	32431	
3367	0	32840	32223	
3368	0	32856	32494	
3369	0	32840	32775	
3370	0	32775	32455	
3371	0	32812	32610	
3372	0	32774	32358	
3373	0	32762	32135	
3374	0	32844	32559	
3375	0	32820	32429	
3376	0	32842	32374	
3377	0	32802	32775	
3378	0	32786	32517	
3379	0	32812	32475	
3380	0	32767	32531	
3381	0	32740	32478	
3382	0	32808	32359	
3383	0	32740	32630	
3384	0	32870	32669	
3385	0	32824	32423	
3386	0	32756	31983	
3387	0	32683	31928	
3388	0	32678	31711	
3389	0	32784	32177	
3390	0	32794	32687	
3391	0	32796	32562	
3392	0	32944	32391	
3393	0	32804	32263	
3394	0	32876	32531	
3395	0	32794	31082	
3396	0	32872	31033	
3397	0	32737	32786	
3398	0	32784	32655	
3399	0	32808	32641	
3400	0	32722	33031	
3401	0	32772	32908	
3402	0	32717	32930	
3403	0	32716	32522	
3404	0	32864	32502	
3405	0	32812	32759	
3406	0	32870	32711	
3407	0	32832	32567	
3408	0	32874	32479	
3409	0	32782	32525	
3410	0	32772	32369	
3411	0	32796	32206	
3412	0	32764	32107	
3413	0	32812	32082	
3414	0	32772	32223	
3415	0	32848	32239	
3416	0	32836	32222	
3417	0	32822	32183	
3418	0	32732	32224	
3419	0	32866	32279	
3420	0	32772	32239	
3421	0	32822	32175	
3422	0	32908	32228	
3423	0	32718	32186	
3424	0	32840	32224	
3425	0	32804	32263	
3426	0	32758	32327	
3427	0	32736	32427	
3428	0	32849	32702	
3429	0	32798	32564	
3430	0	32822	32538	
3431	0	32862	32316	
3432	0	32684	32167	
3433	0	32824	32231	
3434	0	32938	32373	
3435	0	32864	32476	
3436	0	32702	32502	
3437	0	32805	32282	
3438	0	32844	32316	
3439	0	32704	32410	
3440	0	32772	32499	
3441	0	32820	32661	
3442	0	32756	32566	
3443	0	32812	32308	
3444	0	32896	32147	
3445	0	32769	32199	
3446	0	32840	32287	
3447	0	32764	32358	
3448	0	32784	32519	
3449	0	32742	32911	
3450	0	32798	32926	
3451	0	32820	32870	
3452	0	32864	32803	
3453	0	32778	32468	
3454	0	32750	32234	
3455	0	32772	31943	
3456	0	32810	31547	
3457	0	32828	31482	
3458	0	32820	32563	
3459	0	32828	32342	
3460	0	32788	32622	
3461	0	32740	32706	
3462	0	32738	32126	
3463	0	32837	31908	
3464	0	32801	32609	
3465	0	32837	32600	
3466	0	32764	32830	
3467	0	32767	32166	
3468	0	32862	32443	
3469	0	32920	32519	
3470	0	32752	32279	
3471	0	32832	32004	
3472	0	32756	31348	
3473	0	32772	31590	
3474	0	32696	32542	
3475	0	32672	32703	
3476	0	32700	32710	
3477	0	32912	32980	
3478	0	32836	32899	
3479	0	32892	32692	
3480	0	32860	32547	
3481	0	32820	32149	
3482	0	32782	32127	
3483	0	32788	31999	
3484	0	32820	32103	
3485	0	32834	33004	
3486	0	32798	33211	
3487	0	32752	32740	
3488	0	32840	32263	
3489	0	32758	31912	
3490	0	32814	31972	
3491	0	32834	32103	
3492	0	32760	31975	
3493	0	32764	31527	
3494	0	32784	32287	
3495	0	32842	32967	
3496	0	32765	33719	
3497	0	32804	33238	
3498	0	32836	32893	
3499	0	32798	32231	
3500	0	32770	32215	
3501	0	32784	32446	
3502	0	32788	32102	
3503	0	32836	32519	
3504	0	32794	32348	
3505	0	32812	32527	
3506	0	32736	32529	
3507	0	32836	32583	
3508	0	32860	32451	
3509	0	32836	32338	
3510	0	32821	31709	
3511	0	32804	32202	
3512	0	32752	32439	
3513	0	32775	32185	
3514	0	32744	32325	
3515	0	32780	32458	
3516	0	32800	32566	
3517	0	32788	32710	
3518	0	32744	32660	
3519	0	32852	32591	
3520	0	32810	32263	
3521	0	32844	32202	
3522	0	32865	32207	
3523	0	32828	32467	
3524	0	32772	32711	
3525	0	32748	32775	
3526	0	32784	32698	
3527	0	32800	32703	
3528	0	32772	32369	
3529	0	32812	32116	
3530	0	32841	32151	
3531	0	32801	32279	
3532	0	32808	32518	
3533	0	32772	32624	
3534	0	32748	32596	
3535	0	32766	32580	
3536	0	32746	32599	
3537	0	32729	32437	
3538	0	32820	32250	
3539	0	32888	32035	
3540	0	32870	32444	
3541	0	32824	32503	
3542	0	32832	32369	
3543	0	32810	32380	
3544	0	32912	32286	
3545	0	32788	32741	
3546	0	32772	32646	
3547	0	32804	31879	
3548	0	32752	32062	
3549	0	32810	33226	
3550	0	32804	33116	
3551	0	32874	32591	
3552	0	32805	32193	
3553	0	32828	32455	
3554	0	32788	32135	
3555	0	32756	32359	
3556	0	32700	32550	
3557	0	32840	32334	
3558	0	32784	31990	
3559	0	32864	32080	
3560	0	32742	32565	
3561	0	32734	32794	
3562	0	32834	32687	
3563	0	32756	32174	
3564	0	32768	32487	
3565	0	32846	32756	
3566	0	32821	32530	
3567	0	32860	32477	
3568	0	32872	32263	
3569	0	32780	31916	
3570	0	32820	31559	
3571	0	32800	32567	
3572	0	32704	32727	
3573	0	32790	32684	
3574	0	32800	32674	
3575	0	32821	32503	
3576	0	32884	32383	
3577	0	32912	32381	
3578	0	32868	32591	
3579	0	32831	32311	
3580	0	32834	32612	
3581	0	32824	32322	
3582	0	32748	32188	
3583	0	32834	32535	
3584	0	32676	32383	
3585	0	32742	32371	
3586	0	32764	32308	
3587	0	32878	32385	
3588	0	32740	32423	
3589	0	32816	32379	
3590	0	32785	32363	
3591	0	32748	32554	
3592	0	32786	32450	
3593	0	32759	32675	
3594	0	32838	32210	
3595	0	32854	32574	
3596	0	32852	32135	
3597	0	32815	32354	
3598	0	32837	32511	
3599	0	32774	32635	
3600	0	32736	32469	
3601	0	32804	32108	
3602	0	32790	32126	
3603	0	32722	32391	
3604	0	32829	32804	
3605	0	32769	32427	
3606	0	32766	32683	
3607	0	32784	31719	
3608	0	32719	32768	
3609	0	32816	32775	
3610	0	32804	32926	
3611	0	32800	32405	
3612	0	32862	32495	
3613	0	32885	32165	
3614	0	32826	31999	
3615	0	32804	31966	
3616	0	32744	33148	
3617	0	32820	32679	
3618	0	32760	32948	
3619	0	32764	32255	
3620	0	32792	32487	
3621	0	32830	32511	
3622	0	32797	32647	
3623	0	32775	32308	
3624	0	32716	32143	
3625	0	32729	32102	
3626	0	32840	32327	
3627	0	32852	32535	
3628	0	32694	32551	
3629	0	32772	32423	
3630	0	32828	32372	
3631	0	32784	32431	
3632	0	32790	32623	
3633	0	32808	32614	
3634	0	32742	32482	
3635	0	32814	32455	
3636	0	32820	31948	
3637	0	32766	32348	
3638	0	32816	32462	
3639	0	32746	32479	
3640	0	32780	32473	
3641	0	32744	32429	
3642	0	32725	32455	
3643	0	32740	32499	
3644	0	32684	32524	
3645	0	32772	32606	
3646	0	32768	32654	
3647	0	32788	32646	
3648	0	32840	32425	
3649	0	32938	32431	
3650	0	32878	32303	
3651	0	32800	32156	
3652	0	32692	32239	
3653	0	32656	32230	
3654	0	32824	32391	
3655	0	32842	32562	
3656	0	32865	32548	
3657	0	32860	32532	
3658	0	32874	32466	
3659	0	32848	32604	
3660	0	32893	32703	
3661	0	32864	32685	
3662	0	32911	32452	
3663	0	32964	32661	
3664	0	32992	32807	
3665	0	32882	32487	
3666	0	32900	32259	
3667	0	33092	32168	
3668	0	33048	32263	
3669	0	32902	31846	
3670	0	32934	32483	
3671	0	32836	32687	
3672	0	32778	32519	
3673	0	32748	32335	
3674	0	32502	32132	
3675	0	32609	32431	
3676	0	32636	32422	
3677	0	32676	32722	
3678	0	32668	32619	
3679	0	32660	32343	
3680	0	32666	32676	
3681	0	32696	32519	
3682	0	32756	31964	
3683	0	32766	32409	
3684	0	32804	32775	
3685	0	32714	32102	
3686	0	32726	31949	
3687	0	32732	32747	
3688	0	32785	32827	
3689	0	32860	32903	
3690	0	32872	32922	
3691	0	32874	32494	
3692	0	32789	32799	
3693	0	32913	32455	
3694	0	32766	32366	
3695	0	32849	32478	
3696	0	32756	32463	
3697	0	32790	32261	
3698	0	32840	32303	
3699	0	32804	32199	
3700	0	32852	32279	
3701	0	32840	32283	
3702	0	32812	32366	
3703	0	32812	32367	
3704	0	32788	32303	
3705	0	32740	32263	
3706	0	32802	32390	
3707	0	32816	32469	
3708	0	32872	32483	
3709	0	32760	32292	
3710	0	32828	32506	
3711	0	32784	32639	
3712	0	32768	32519	
3713	0	32788	32311	
3714	0	32814	32323	
3715	0	32775	32479	
3716	0	32796	32068	
3717	0	32782	32112	
3718	0	32748	32197	
3719	0	32768	32742	
3720	0	32804	32722	
3721	0	32800	32639	
3722	0	32752	32623	
3723	0	32799	32563	
3724	0	32772	32647	
3725	0	32817	32807	
3726	0	32847	32706	
3727	0	32789	32636	
3728	0	32828	32775	
3729	0	32752	32879	
3730	0	32741	32398	
3731	0	32780	32310	
3732	0	32764	31820	
3733	0	32764	31868	
3734	0	32767	32252	
3735	0	32758	32572	
3736	0	32882	32567	
3737	0	32788	32423	
3738	0	32828	32492	
3739	0	32772	32620	
3740	0	32806	32622	
3741	0	32783	32563	
3742	0	32744	32519	
3743	0	32782	32855	
3744	0	32780	32926	
3745	0	32752	32940	
3746	0	32730	32775	
3747	0	32710	32166	
3748	0	32772	32287	
3749	0	32828	32988	
3750	0	32764	32791	
3751	0	32790	32671	
3752	0	32694	32586	
3753	0	32778	32421	
3754	0	32706	32639	
3755	0	32760	32566	
3756	0	32766	32474	
3757	0	32768	32566	
3758	0	32764	32263	
3759	0	32688	32263	
3760	0	32784	32404	
3761	0	32812	32199	
3762	0	32757	32453	
3763	0	32800	32423	
3764	0	32879	32263	
3765	0	33018	32261	
3766	0	33112	32406	
3767	0	33102	32549	
3768	0	33160	32595	
3769	0	32951	32439	
3770	0	32928	32607	
3771	0	33098	32364	
3772	0	32994	32068	
3773	0	33012	32412	
3774	0	33084	32828	
3775	0	33173	32153	
3776	0	33068	31287	
3777	0	33112	30799	
3778	0	33210	32454	
3779	0	33204	33736	
3780	0	33151	33172	
3781	0	33134	32046	
3782	0	33136	31847	
3783	0	33140	32071	
3784	0	32948	32503	
3785	0	32864	32671	
3786	0	32872	32702	
3787	0	32816	32579	
3788	0	32672	32358	
3789	0	32702	32359	
3790	0	32647	32433	
3791	0	32488	32095	
3792	0	32400	32647	
3793	0	32226	32252	
3794	0	32293	32708	
3795	0	32204	32348	
3796	0	32224	32347	
3797	0	32236	32741	
3798	0	32412	32243	
3799	0	32436	32583	
3800	0	32242	32563	
3801	0	32194	32309	
3802	0	32228	32636	
3803	0	32256	32318	
3804	0	32268	32588	
3805	0	32388	32399	
3806	0	32448	32154	
3807	0	32587	32602	
3808	0	32712	32177	
3809	0	32766	32662	
3810	0	32856	32151	
3811	0	32852	32615	
3812	0	32806	32316	
3813	0	32934	32543	
3814	0	33008	32668	
3815	0	33078	32282	
3816	0	33084	32588	
3817	0	32996	32327	
3818	0	33008	32583	
3819	0	32924	32711	
3820	0	32904	32647	
3821	0	32975	32578	
3822	0	32964	32604	
3823	0	32852	32625	
3824	0	32892	32688	
3825	0	32988	32599	
3826	0	32988	32414	
3827	0	32992	32228	
3828	0	33000	32054	
3829	0	32942	32326	
3830	0	32928	32647	
3831	0	32886	32252	
3832	0	32820	32394	
3833	0	32748	32407	
3834	0	32824	32340	
3835	0	32734	32023	
3836	0	32744	32810	
3837	0	32770	32216	
3838	0	32864	31964	
3839	0	32832	32606	
3840	0	32844	33177	
3841	0	32896	32519	
3842	0	32834	32756	
3843	0	32834	32272	
3844	0	32816	31999	
3845	0	32888	31796	
3846	0	32840	31657	
3847	0	32740	32636	
3848	0	32852	32759	
3849	0	32884	32967	
3850	0	32816	32990	
3851	0	32776	32843	
3852	0	32738	32611	
3853	0	32760	32616	
3854	0	32832	32855	
3855	0	32784	32359	
3856	0	32844	32639	
3857	0	32784	31807	
3858	0	32769	32519	
3859	0	32820	32127	
3860	0	32894	32299	
3861	0	32876	32391	
3862	0	32804	31767	
3863	0	32884	32431	
3864	0	32754	32605	
3865	0	32900	32554	
3866	0	32788	32479	
3867	0	32682	32293	
3868	0	32770	32655	
3869	0	32844	32346	
3870	0	32832	32375	
3871	0	32782	32351	
3872	0	32806	32404	
3873	0	32830	32170	
3874	0	32752	32181	
3875	0	32812	32327	
3876	0	32832	32263	
3877	0	32772	32287	
3878	0	32784	32286	
3879	0	32840	32534	
3880	0	32824	32751	
3881	0	32780	32460	
3882	0	32778	32359	
3883	0	32796	32226	
3884	0	32796	32585	
3885	0	32702	32655	
3886	0	32864	32808	
3887	0	32824	32508	
3888	0	32884	32390	
3889	0	32840	32708	
3890	0	32828	32634	
3891	0	32808	32951	
3892	0	32840	32596	
3893	0	32888	33039	
3894	0	32796	33234	
3895	0	32824	32980	
3896	0	32812	33570	
3897	0	32689	33658	
3898	0	32792	34311	
3899	0	32724	35335	
3900	0	32788	35847	
3901	0	32836	38270	
3902	0	32848	42732	
3903	0	32850	52772	
3904	0	32908	52958	
3905	0	32836	50740	
3906	0	35660	46762	
3907	0	32244	33	
3908	0	32140	29	
3909	0	32256	34416	
3910	0	32536	50588	
3911	0	32788	54880	
3912	0	32872	52416	
3913	0	32924	49887	
3914	0	32792	47818	
3915	0	32788	45404	
3916	0	32789	44068	
3917	0	32648	42207	
3918	0	32504	40932	
3919	0	32380	39735	
3920	0	32632	33280	
3921	0	32860	26316	
3922	0	32880	26060	
3923	0	32902	25974	
3924	0	32996	27319	
3925	0	32932	26838	
3926	0	32896	25820	
3927	0	32844	23804	
3928	0	32946	22910	
3929	0	32820	21905	
3930	0	32764	21820	
3931	0	32860	21661	
3932	0	32842	22184	
3933	0	32732	24782	
3934	0	32740	26879	
3935	0	32844	27498	
3936	0	32812	27134	
3937	0	32776	28167	
3938	0	32840	29010	
3939	0	32858	29255	
3940	0	32798	29286	
3941	0	32780	28979	
3942	0	32772	30356	
3943	0	32884	31026	
3944	0	32708	30577	
3945	0	32706	30328	
3946	0	32904	30440	
3947	0	32908	30695	
3948	0	32844	30887	
3949	0	32732	31013	
3950	0	32766	30867	
3951	0	32696	30935	
3952	0	32772	30749	
3953	0	32660	31289	
3954	0	32706	31111	
3955	0	32794	31300	
3956	0	32922	31572	
3957	0	32856	31487	
3958	0	32892	31073	
3959	0	32940	30997	
3960	0	32716	31023	
3961	0	32740	31046	
3962	0	32756	30919	
3963	0	32856	30947	
3964	0	32892	31463	
3965	0	32872	32191	
3966	0	32896	32623	
3967	0	32822	32711	
3968	0	32700	31399	
3969	0	32780	29992	
3970	0	32892	30207	
3971	0	32810	30775	
3972	0	32804	31034	
3973	0	32696	31659	
3974	0	32760	31788	
3975	0	32768	30804	
3976	0	32714	29376	
3977	0	32724	28607	
3978	0	32800	28102	
3979	0	32838	29022	
3980	0	32719	30159	
3981	0	32868	30508	
3982	0	32782	31828	
3983	0	32840	34138	
3984	0	32785	35540	
3985	0	32824	35967	
3986	0	32813	34311	
3987	0	32900	32938	
3988	0	32902	32222	
3989	0	32734	32671	
3990	0	32840	33642	
3991	0	32868	36016	
3992	0	32792	38656	
3993	0	32948	39412	
3994	0	32792	39047	
3995	0	32624	39096	
3996	0	32704	39788	
3997	0	32710	37950	
3998	0	32860	34396	
3999	0	32872	31538	
4000	0	32817	29447	
4001	0	32636	28446	
4002	0	32824	28013	
4003	0	32848	27911	
4004	0	32760	28332	
4005	0	32775	28945	
4006	0	32808	29319	
4007	0	32868	29883	
4008	0	32776	30418	
4009	0	32862	31023	
4010	0	32839	31727	
4011	0	32920	32497	
4012	0	32814	33196	
4013	0	32894	33815	
4014	0	32780	34278	
4015	0	32790	34671	
4016	0	32760	34839	
4017	0	32880	35036	
4018	0	32720	34871	
4019	0	32639	34554	
4020	0	32592	34111	
4021	0	32692	33671	
4022	0	32852	33153	
4023	0	32791	33320	
4024	0	32824	33607	
4025	0	32824	33763	
4026	0	32833	33703	
4027	0	32840	33490	
4028	0	32832	33397	
4029	0	32808	33084	
4030	0	32824	32958	
4031	0	32788	32895	
4032	0	32772	32602	
4033	0	32818	32503	
4034	0	32726	32362	
4035	0	32822	32149	
4036	0	32752	31824	
4037	0	32750	31821	
4038	0	32834	31747	
4039	0	32846	31708	
4040	0	32796	31609	
4041	0	32764	31650	
4042	0	32675	31780	
4043	0	32834	31959	
4044	0	32856	31879	
4045	0	32839	32186	
4046	0	32812	32578	
4047	0	32852	33167	
4048	0	32758	33476	
4049	0	32832	33615	
4050	0	32794	33831	
4051	0	32828	33628	
4052	0	32838	33367	
4053	0	32730	33724	
4054	0	32772	34040	
4055	0	32735	34027	
4056	0	32752	33980	
4057	0	32804	34084	
4058	0	32840	33870	
4059	0	32804	33608	
4060	0	32854	33313	
4061	0	32802	33028	
4062	0	32776	32322	
4063	0	32796	32532	
4064	0	32788	31750	
4065	0	32738	31311	
4066	0	32878	31607	
4067	0	32798	31743	
4068	0	32750	31751	
4069	0	32872	32132	
4070	0	32740	32263	
4071	0	32766	31870	
4072	0	32804	31602	
4073	0	32788	32188	
4074	0	32752	32161	
4075	0	32836	32023	
4076	0	32790	32453	
4077	0	32775	32541	
4078	0	32764	32542	
4079	0	32775	32347	
4080	0	32788	32300	
4081	0	32810	32292	
4082	0	32796	32288	
4083	0	32852	32325	
4084	0	32792	32503	
4085	0	32728	32431	
4086	0	32896	32307	
4087	0	32844	32007	
4088	0	32836	32023	
4089	0	32838	32596	
4090	0	32748	32564	
4091	0	32778	32250	
4092	0	32780	32263	
4093	0	32800	32202	
4094	0	32904	32356	
4095	0	32840	32606	
4096	0	32860	32641	
4097	0	32698	32663	
4098	0	32731	32351	
4099	0	32796	32327	
4100	0	32880	32196	
4101	0	32738	31647	
4102	0	32796	32004	
4103	0	32804	32550	
4104	0	32888	32614	
4105	0	32804	32639	
4106	0	32840	32716	
4107	0	32734	32741	
4108	0	32734	32822	
4109	0	32788	33044	
4110	0	32860	32980	
4111	0	32744	32919	
4112	0	32860	32951	
4113	0	32648	32735	
4114	0	32812	32383	
4115	0	32902	32628	
4116	0	32810	32203	
4117	0	32824	31548	
4118	0	32728	31274	
4119	0	32775	31271	
4120	0	32902	31739	
4121	0	32730	31655	
4122	0	32836	32175	
4123	0	32775	31954	
4124	0	32860	32675	
4125	0	32786	33052	
4126	0	32796	33679	
4127	0	32832	33595	
4128	0	32754	33378	
4129	0	32767	33370	
4130	0	32876	32862	
4131	0	32812	32135	
4132	0	32856	32186	
4133	0	32730	32596	
4134	0	32774	33012	
4135	0	32814	32431	
4136	0	32858	32156	
4137	0	32834	32476	
4138	0	32712	32519	
4139	0	32834	32636	
4140	0	32712	32276	
4141	0	32664	32125	
4142	0	32832	32181	
4143	0	32954	32033	
4144	0	32849	32487	
4145	0	32816	32953	
4146	0	32836	32292	
4147	0	32858	32383	
4148	0	32800	32437	
4149	0	32821	32493	
4150	0	32856	32574	
4151	0	32738	32639	
4152	0	32724	32495	
4153	0	32796	32758	
4154	0	32780	33013	
4155	0	32788	32961	
4156	0	32932	32751	
4157	0	32870	32743	
4158	0	32902	32761	
4159	0	32692	32564	
4160	0	32645	32148	
4161	0	32776	31751	
4162	0	32725	31546	
4163	0	32858	31830	
4164	0	32801	31953	
4165	0	32742	32229	
4166	0	32764	32479	
4167	0	32728	32390	
4168	0	32812	32743	
4169	0	32788	32414	
4170	0	32762	32311	
4171	0	32936	32703	
4172	0	32894	32806	
4173	0	32850	32934	
4174	0	32716	32967	
4175	0	32738	32070	
4176	0	32846	32068	
4177	0	32812	32104	
4178	0	32848	32903	
4179	0	32742	33287	
4180	0	32653	32743	
4181	0	32850	32600	
4182	0	32780	32775	
4183	0	32764	32959	
4184	0	32764	33159	
4185	0	32780	32743	
4186	0	32892	32268	
4187	0	32754	32229	
4188	0	32872	32723	
4189	0	32844	33012	
4190	0	32810	32541	
4191	0	32828	31614	
4192	0	32820	30178	
4193	0	32847	30812	
4194	0	32844	32703	
4195	0	32868	33335	
4196	0	32820	33884	
4197	0	32820	33863	
4198	0	32705	33079	
4199	0	32764	32775	
4200	0	32860	32409	
4201	0	32884	31860	
4202	0	32854	31806	
4203	0	32876	32174	
4204	0	32748	32434	
4205	0	32668	32734	
4206	0	32838	33537	
4207	0	32856	32799	
4208	0	32840	32414	
4209	0	32732	32219	
4210	0	32824	32046	
4211	0	32856	31986	
4212	0	32782	32159	
4213	0	32812	32401	
4214	0	32778	32352	
4215	0	32828	32775	
4216	0	32892	32686	
4217	0	32762	32607	
4218	0	32804	32519	
4219	0	32796	32211	
4220	0	32764	31423	
4221	0	32775	31726	
4222	0	32696	32686	
4223	0	32756	32775	
4224	0	32768	33135	
4225	0	32780	32962	
4226	0	32984	32431	
4227	0	32921	32511	
4228	0	32761	32451	
4229	0	32762	32455	
4230	0	32738	32263	
4231	0	32826	32519	
4232	0	32792	32604	
4233	0	32874	32564	
4234	0	32948	32370	
4235	0	32804	32212	
4236	0	32744	31978	
4237	0	32752	32145	
4238	0	32792	31700	
4239	0	32720	32021	
4240	0	32758	32451	
4241	0	32840	32588	
4242	0	32852	32423	
4243	0	32916	32487	
4244	0	32900	32466	
4245	0	32700	31897	
4246	0	32752	31623	
4247	0	32748	32437	
4248	0	32812	32633	
4249	0	32884	32815	
4250	0	32960	32869	
4251	0	32804	33212	
4252	0	32768	33053	
4253	0	32860	32857	
4254	0	32848	32396	
4255	0	32702	32034	
4256	0	32753	32082	
4257	0	32718	32199	
4258	0	32980	31943	
4259	0	32612	31943	
4260	0	32730	32039	
4261	0	32804	31900	
4262	0	32782	32165	
4263	0	32782	33031	
4264	0	32812	32423	
4265	0	32712	32375	
4266	0	32862	32615	
4267	0	32796	32167	
4268	0	32732	32399	
4269	0	32864	32671	
4270	0	32728	32097	
4271	0	32756	32342	
4272	0	32772	33274	
4273	0	32824	32932	
4274	0	32849	32086	
4275	0	32784	32699	
4276	0	32768	32303	
4277	0	32832	31879	
4278	0	32836	31681	
4279	0	32844	31911	
4280	0	32824	32103	
4281	0	32810	32095	
4282	0	32788	32814	
4283	0	32834	32789	
4284	0	32941	32548	
4285	0	32808	32310	
4286	0	32730	31895	
4287	0	32812	32300	
4288	0	32728	32021	
4289	0	32734	32516	
4290	0	32780	33359	
4291	0	32885	33063	
4292	0	32790	32703	
4293	0	32817	32583	
4294	0	32692	32479	
4295	0	32836	32438	
4296	0	32788	32535	
4297	0	32800	32646	
4298	0	32775	32932	
4299	0	32902	32879	
4300	0	32762	32172	
4301	0	32747	31830	
4302	0	32794	32151	
4303	0	32826	31639	
4304	0	32794	31994	
4305	0	32832	32251	
4306	0	32832	32383	
4307	0	32828	31751	
4308	0	32756	31922	
4309	0	32704	33198	
4310	0	32756	33261	
4311	0	32792	32498	
4312	0	32767	32119	
4313	0	32872	32171	
4314	0	32830	32095	
4315	0	32902	32183	
4316	0	32744	32223	
4317	0	32746	32239	
4318	0	32804	32207	
4319	0	32796	32180	
4320	0	32840	32087	
4321	0	32732	33590	
4322	0	32820	33927	
4323	0	32860	33966	
4324	0	32986	34496	
4325	0	32775	33815	
4326	0	32888	32908	
4327	0	32834	31913	
4328	0	32720	31356	
4329	0	32802	30358	
4330	0	32652	29002	
4331	0	32678	29910	
4332	0	32660	29912	
4333	0	32693	29703	
4334	0	32844	30401	
4335	0	32852	31476	
4336	0	32790	32669	
4337	0	32856	33461	
4338	0	32802	34207	
4339	0	32880	34228	
4340	0	32821	33668	
4341	0	32750	33279	
4342	0	32772	33079	
4343	0	32752	32566	
4344	0	32788	32582	
4345	0	32832	32975	
4346	0	32732	32767	
4347	0	32736	32439	
4348	0	32800	32339	
4349	0	32594	33333	
4350	0	32769	33895	
4351	0	32775	33447	
4352	0	32780	32903	
4353	0	32900	32708	
4354	0	32848	31791	
4355	0	32894	30983	
4356	0	32878	31326	
4357	0	32702	31639	
4358	0	32590	33415	
4359	0	32698	33377	
4360	0	32768	32762	
4361	0	32894	31939	
4362	0	32910	32734	
4363	0	32836	33124	
4364	0	32876	33276	
4365	0	32974	32494	
4366	0	32836	32575	
4367	0	32948	32572	
4368	0	32990	32437	
4369	0	33004	32447	
4370	0	32972	32412	
4371	0	32936	32319	
4372	0	32994	32414	
4373	0	32916	32380	
4374	0	32995	32482	
4375	0	32973	32406	
4376	0	32815	32391	
4377	0	32766	32092	
4378	0	32672	32263	
4379	0	32704	32812	
4380	0	32704	32498	
4381	0	32596	32231	
4382	0	32652	32675	
4383	0	32534	32545	
4384	0	32538	32583	
4385	0	32620	32615	
4386	0	32604	31875	
4387	0	32824	32215	
4388	0	32801	32362	
4389	0	32824	32431	
4390	0	32732	32383	
4391	0	32774	32375	
4392	0	32740	32259	
4393	0	32850	32343	
4394	0	32835	32327	
4395	0	32903	32231	
4396	0	32892	32256	
4397	0	32870	32244	
4398	0	32924	32431	
4399	0	32832	32506	
4400	0	32831	32383	
4401	0	32808	32404	
4402	0	32884	32460	
4403	0	32810	32355	
4404	0	32814	32513	
4405	0	32630	32467	
4406	0	32764	32564	
4407	0	32704	32607	
4408	0	32816	32132	
4409	0	32828	32199	
4410	0	32737	32500	
4411	0	32952	33023	
4412	0	32930	33159	
4413	0	32864	32895	
4414	0	32832	32421	
4415	0	32828	31908	
4416	0	32732	32155	
4417	0	32956	31967	
4418	0	32754	33082	
4419	0	32714	32512	
4420	0	32652	32706	
4421	0	32736	32135	
4422	0	32664	32380	
4423	0	32820	32183	
4424	0	32828	32435	
4425	0	32868	32606	
4426	0	32981	32643	
4427	0	32942	32588	
4428	0	32826	32591	
4429	0	32838	32639	
4430	0	32788	32711	
4431	0	32804	32709	
4432	0	32918	32631	
4433	0	32732	32597	
4434	0	32712	32631	
4435	0	32720	32676	
4436	0	32644	32676	
4437	0	32668	32679	
4438	0	32686	32692	
4439	0	32756	32744	
4440	0	32714	32764	
4441	0	32760	32727	
4442	0	32922	32138	
4443	0	32738	31995	
4444	0	32596	32599	
4445	0	32706	32135	
4446	0	32838	32143	
4447	0	32837	32775	
4448	0	32897	32455	
4449	0	32664	32310	
4450	0	32788	32628	
4451	0	32936	32416	
4452	0	32857	32153	
4453	0	32880	32341	
4454	0	32914	32123	
4455	0	32926	32339	
4456	0	32809	32391	
4457	0	32620	32436	
4458	0	32746	32327	
4459	0	32788	32343	
4460	0	32692	32351	
4461	0	32683	32292	
4462	0	32676	32287	
4463	0	32638	32255	
4464	0	32602	32327	
4465	0	32526	32363	
4466	0	32564	32381	
4467	0	32676	32318	
4468	0	32798	32355	
4469	0	32878	32379	
4470	0	32957	32455	
4471	0	33151	32330	
4472	0	33216	32310	
4473	0	33232	32502	
4474	0	33208	32647	
4475	0	33246	32638	
4476	0	33134	32711	
4477	0	33016	32755	
4478	0	33008	32759	
4479	0	33134	32675	
4480	0	33163	32478	
4481	0	32982	32062	
4482	0	33004	31934	
4483	0	33094	32448	
4484	0	33112	32342	
4485	0	33100	32451	
4486	0	33116	32403	
4487	0	33140	32446	
4488	0	33152	32498	
4489	0	33088	32495	
4490	0	32868	32530	
4491	0	32774	32379	
4492	0	32916	32430	
4493	0	32917	32583	
4494	0	32696	32487	
4495	0	32584	32487	
4496	0	32400	32476	
4497	0	32342	32387	
4498	0	32196	32212	
4499	0	32196	32199	
4500	0	32234	32167	
4501	0	32352	32254	
4502	0	32257	32421	
4503	0	32220	32427	
4504	0	32364	32501	
4505	0	32462	32540	
4506	0	32468	32700	
4507	0	32340	32687	
4508	0	32340	32644	
4509	0	32246	32629	
4510	0	32220	32608	
4511	0	32344	32471	
4512	0	32532	32608	
4513	0	32654	32581	
4514	0	32804	32228	
4515	0	32768	32121	
4516	0	32804	31999	
4517	0	32878	32263	
4518	0	32892	32467	
4519	0	32911	32422	
4520	0	32948	32460	
4521	0	33120	32442	
4522	0	33084	32644	
4523	0	33032	32578	
4524	0	32964	32657	
4525	0	33044	32593	
4526	0	33038	32359	
4527	0	32926	32208	
4528	0	32920	32140	
4529	0	32964	32358	
4530	0	32908	32626	
4531	0	32862	32515	
4532	0	32836	32511	
4533	0	32944	32588	
4534	0	32817	32519	
4535	0	32748	32764	
4536	0	32912	33358	
4537	0	32800	33003	
4538	0	32727	32518	
4539	0	32880	32351	
4540	0	32944	32321	
4541	0	32967	32423	
4542	0	33016	32846	
4543	0	33100	32524	
4544	0	32868	32559	
4545	0	32692	32644	
4546	0	32704	32535	
4547	0	32712	32316	
4548	0	32716	32295	
4549	0	32576	32127	
4550	0	32636	32063	
4551	0	32672	32687	
4552	0	32735	33322	
4553	0	32716	33084	
4554	0	32814	32837	
4555	0	32900	32675	
4556	0	32896	32695	
4557	0	32944	32703	
4558	0	32926	32646	
4559	0	33044	31951	
4560	0	32941	32173	
4561	0	32948	32075	
4562	0	32796	32571	
4563	0	32740	32367	
4564	0	32964	32564	
4565	0	32692	32371	
4566	0	32648	32380	
4567	0	32528	32434	
4568	0	32712	32253	
4569	0	32722	32451	
4570	0	32783	32684	
4571	0	32916	32674	
4572	0	33014	32611	
4573	0	32934	32315	
4574	0	32834	31948	
4575	0	32834	32198	
4576	0	32794	32647	
4577	0	32576	32543	
4578	0	32544	32434	
4579	0	32602	32701	
4580	0	32654	32527	
4581	0	32774	32252	
4582	0	32865	32279	
4583	0	32916	32319	
4584	0	32959	32372	
4585	0	33010	32399	
4586	0	32868	32382	
4587	0	32872	32451	
4588	0	32878	32564	
4589	0	32852	32311	
4590	0	32728	32207	
4591	0	32590	32351	
4592	0	32694	32519	
4593	0	32772	32413	
4594	0	32672	32148	
4595	0	32744	32367	
4596	0	33018	32551	
4597	0	33020	32434	
4598	0	32972	32323	
4599	0	32940	32359	
4600	0	32752	32175	
4601	0	32632	32631	
4602	0	32940	32695	
4603	0	32840	32546	
4604	0	32738	32630	
4605	0	32740	32895	
4606	0	32746	32740	
4607	0	32844	32679	
4608	0	32824	32676	
4609	0	32752	32327	
4610	0	32664	32431	
4611	0	32742	31986	
4612	0	32746	31911	
4613	0	32788	32052	
4614	0	32775	32446	
4615	0	32728	32698	
4616	0	32825	32756	
4617	0	32884	32719	
4618	0	32764	32340	
4619	0	32838	32097	
4620	0	32888	32252	
4621	0	32828	32263	
4622	0	32920	32255	
4623	0	32868	32734	
4624	0	32780	32599	
4625	0	32791	32487	
4626	0	32720	32710	
4627	0	32744	32711	
4628	0	32708	32564	
4629	0	32716	32327	
4630	0	32722	32420	
4631	0	32732	32399	
4632	0	32828	32327	
4633	0	32838	32447	
4634	0	32852	32895	
4635	0	32896	32633	
4636	0	32860	32311	
4637	0	32820	32582	
4638	0	32844	32295	
4639	0	32836	31805	
4640	0	32812	31924	
4641	0	32820	32446	
4642	0	32928	32506	
4643	0	32768	32319	
4644	0	32727	32284	
4645	0	32788	32383	
4646	0	32744	32151	
4647	0	32764	32378	
4648	0	32740	32383	
4649	0	32830	32348	
4650	0	32768	32058	
4651	0	32788	31826	
4652	0	32668	32007	
4653	0	32756	32750	
4654	0	32821	32315	
4655	0	32872	32628	
4656	0	32808	33111	
4657	0	32796	32442	
4658	0	32870	32737	
4659	0	32856	32391	
4660	0	32780	32199	
4661	0	32740	32539	
4662	0	32840	32170	
4663	0	32684	32146	
4664	0	32630	32414	
4665	0	32660	32614	
4666	0	32690	32567	
4667	0	32650	32587	
4668	0	32678	32692	
4669	0	32826	32759	
4670	0	32846	32619	
4671	0	32878	32574	
4672	0	33090	32511	
4673	0	33068	32263	
4674	0	32999	32423	
4675	0	32896	32471	
4676	0	32828	32226	
4677	0	32824	32193	
4678	0	32704	32209	
4679	0	32672	32378	
4680	0	32788	32518	
4681	0	32830	32615	
4682	0	32842	32697	
4683	0	33008	32638	
4684	0	32860	32527	
4685	0	32604	32599	
4686	0	32661	32634	
4687	0	32806	32623	
4688	0	32830	32399	
4689	0	32718	32192	
4690	0	32898	32044	
4691	0	32740	31900	
4692	0	32784	32007	
4693	0	32794	32148	
4694	0	32754	32367	
4695	0	32737	32916	
4696	0	32840	32855	
4697	0	32805	32743	
4698	0	32803	32730	
4699	0	32654	32666	
4700	0	32640	32665	
4701	0	32792	32527	
4702	0	32830	32277	
4703	0	32772	32215	
4704	0	32748	32383	
4705	0	32856	32230	
4706	0	32768	32151	
4707	0	32902	32280	
4708	0	32866	32325	
4709	0	32952	32543	
4710	0	33012	32583	
4711	0	32884	32594	
4712	0	32872	32687	
4713	0	32852	32707	
4714	0	32721	32727	
4715	0	32812	32463	
4716	0	32772	32263	
4717	0	32700	32191	
4718	0	32736	32199	
4719	0	32732	32199	
4720	0	32784	32143	
4721	0	32760	32110	
4722	0	32798	32295	
4723	0	32725	32341	
4724	0	32804	32373	
4725	0	32858	32215	
4726	0	32832	32149	
4727	0	32740	32150	
4728	0	32762	32250	
4729	0	32790	32263	
4730	0	32823	32282	
4731	0	32828	32228	
4732	0	32810	32187	
4733	0	32768	32212	
4734	0	32788	32157	
4735	0	32720	32254	
4736	0	32760	32338	
4737	0	32796	32583	
4738	0	32756	32582	
4739	0	32772	32450	
4740	0	32856	32038	
4741	0	32874	32775	
4742	0	32936	32967	
4743	0	32910	32775	
4744	0	32890	32758	
4745	0	32816	32426	
4746	0	32908	32247	
4747	0	32660	32404	
4748	0	32561	32583	
4749	0	32724	32519	
4750	0	32766	32374	
4751	0	32818	32407	
4752	0	32828	32471	
4753	0	32900	32339	
4754	0	32956	32347	
4755	0	32932	32263	
4756	0	32797	32487	
4757	0	32832	32391	
4758	0	32794	32247	
4759	0	32790	32232	
4760	0	32746	31975	
4761	0	32662	31942	
4762	0	32734	32050	
4763	0	32694	32339	
4764	0	32766	32247	
4765	0	32800	32383	
4766	0	32820	32255	
4767	0	32868	32303	
4768	0	32888	32331	
4769	0	32838	32284	
4770	0	32816	32263	
4771	0	32872	32323	
4772	0	32809	32647	
4773	0	32760	32231	
4774	0	32828	32663	
4775	0	32884	32155	
4776	0	32880	32612	
4777	0	32740	32215	
4778	0	32736	32574	
4779	0	32828	32375	
4780	0	32936	32447	
4781	0	32872	32351	
4782	0	32721	32630	
4783	0	32774	32218	
4784	0	32672	32402	
4785	0	32662	32380	
4786	0	32712	32791	
4787	0	32880	32412	
4788	0	32792	32631	
4789	0	32736	32045	
4790	0	32834	32287	
4791	0	32863	32478	
4792	0	32862	32494	
4793	0	32760	32325	
4794	0	32767	32407	
4795	0	32866	32422	
4796	0	32793	32455	
4797	0	32764	32383	
4798	0	32857	32175	
4799	0	32720	32111	
4800	0	32748	32090	
4801	0	32802	32262	
4802	0	32774	32255	
4803	0	32880	32285	
4804	0	32880	32239	
4805	0	32690	32253	
4806	0	32844	32215	
4807	0	32922	32582	
4808	0	32692	32431	
4809	0	32648	32295	
4810	0	32704	32295	
4811	0	32700	32262	
4812	0	32800	32439	
4813	0	32696	32430	
4814	0	32828	32628	
4815	0	32872	32567	
4816	0	33028	32447	
4817	0	32900	32310	
4818	0	32868	32310	
4819	0	32828	32389	
4820	0	32799	32468	
4821	0	32896	32503	
4822	0	32812	32475	
4823	0	32804	32475	
4824	0	32964	32494	
4825	0	32900	32647	
4826	0	32788	32465	
4827	0	32633	32423	
4828	0	32644	32415	
4829	0	32776	32431	
4830	0	32820	32417	
4831	0	32822	32430	
4832	0	32776	32471	
4833	0	32854	32441	
4834	0	32768	32689	
4835	0	32880	32741	
4836	0	32818	32743	
4837	0	32796	32751	
4838	0	32828	32561	
4839	0	32761	32504	
4840	0	32752	32659	
4841	0	32888	32694	
4842	0	32806	32684	
4843	0	32732	32427	
4844	0	32708	32276	
4845	0	32816	32205	
4846	0	32772	32124	
4847	0	32716	32252	
4848	0	32788	32309	
4849	0	32778	32519	
4850	0	32724	32607	
4851	0	32728	32684	
4852	0	32824	32583	
4853	0	32834	32497	
4854	0	32864	32559	
4855	0	32888	32615	
4856	0	32846	32871	
4857	0	32884	32831	
4858	0	32928	32604	
4859	0	32868	32285	
4860	0	32932	32605	
4861	0	32764	32095	
4862	0	32749	32263	
4863	0	32866	32263	
4864	0	32744	32594	
4865	0	32846	32203	
4866	0	32856	32620	
4867	0	32882	32301	
4868	0	32772	32509	
4869	0	32634	32493	
4870	0	32796	32263	
4871	0	32884	32668	
4872	0	32815	32303	
4873	0	32750	32635	
4874	0	32802	32333	
4875	0	32805	32172	
4876	0	32714	32156	
4877	0	32752	32111	
4878	0	32816	32251	
4879	0	32740	32499	
4880	0	32728	32671	
4881	0	32766	32656	
4882	0	32888	32635	
4883	0	32852	32575	
4884	0	32726	32487	
4885	0	32844	32228	
4886	0	32841	32187	
4887	0	32820	32244	
4888	0	32834	32295	
4889	0	32876	32308	
4890	0	32900	32199	
4891	0	32752	32147	
4892	0	32794	32263	
4893	0	32776	32327	
4894	0	32852	32391	
4895	0	32742	32423	
4896	0	32766	32502	
4897	0	32801	32711	
4898	0	32704	32699	
4899	0	32836	32620	
4900	0	32864	32420	
4901	0	32860	32391	
4902	0	32808	32431	
4903	0	32775	32400	
4904	0	32726	32443	
4905	0	32725	32455	
4906	0	32686	32216	
4907	0	32769	32620	
4908	0	32741	32454	
4909	0	32852	32502	
4910	0	32893	32399	
4911	0	32872	32062	
4912	0	32820	32399	
4913	0	32808	32414	
4914	0	32806	32655	
4915	0	32842	32460	
4916	0	32976	32388	
4917	0	32808	32549	
4918	0	32548	32478	
4919	0	32676	32660	
4920	0	32761	32436	
4921	0	32756	32294	
4922	0	32775	32124	
4923	0	32836	32067	
4924	0	32928	32247	
4925	0	32984	32535	
4926	0	33020	32500	
4927	0	32906	32391	
4928	0	32874	32479	
4929	0	32884	32303	
4930	0	32800	32640	
4931	0	32765	31982	
4932	0	32812	32263	
4933	0	32804	32661	
4934	0	32692	32430	
4935	0	32714	32690	
4936	0	32710	32595	
4937	0	32814	32195	
4938	0	32800	32263	
4939	0	32790	32547	
4940	0	32792	32391	
4941	0	32741	32235	
4942	0	32714	32419	
4943	0	32742	32695	
4944	0	32932	32597	
4945	0	32895	32390	
4946	0	32736	32199	
4947	0	32866	32204	
4948	0	32868	32227	
4949	0	32892	32308	
4950	0	32684	32263	
4951	0	32706	32433	
4952	0	32860	32577	
4953	0	32808	32686	
4954	0	32756	32687	
4955	0	32952	32487	
4956	0	32718	32230	
4957	0	32684	32100	
4958	0	32741	32245	
4959	0	32869	32282	
4960	0	32853	32334	
4961	0	32860	32665	
4962	0	32770	32628	
4963	0	32870	32711	
4964	0	32790	32663	
4965	0	32892	32574	
4966	0	32764	32565	
4967	0	32725	32465	
4968	0	32711	32369	
4969	0	32818	32263	
4970	0	32804	32215	
4971	0	32752	32236	
4972	0	32714	32375	
4973	0	32826	32130	
4974	0	32798	32071	
4975	0	32836	32053	
4976	0	32836	32197	
4977	0	32844	32227	
4978	0	32876	32358	
4979	0	32856	32372	
4980	0	32772	32287	
4981	0	32820	32263	
4982	0	32828	32332	
4983	0	32828	32502	
4984	0	32836	32561	
4985	0	32696	32927	
4986	0	32756	32678	
4987	0	32836	32455	
4988	0	32716	32388	
4989	0	32676	32711	
4990	0	32796	32547	
4991	0	32820	32159	
4992	0	32854	31954	
4993	0	32912	32132	
4994	0	32858	32279	
4995	0	32742	32590	
4996	0	32754	32007	
4997	0	32797	32413	
4998	0	32836	32964	
4999	0	32874	32415	
5000	0	32712	32567	
5001	0	32748	32549	
5002	0	32775	32309	
5003	0	32756	32348	
5004	0	32756	32578	
5005	0	32741	32199	
5006	0	32762	32519	
5007	0	32812	32251	
5008	0	32864	32631	
5009	0	32828	32263	
5010	0	32868	32610	
5011	0	32754	32123	
5012	0	32847	32391	
5013	0	32820	32638	
5014	0	32765	32263	
5015	0	32860	32555	
5016	0	32740	32327	
5017	0	32872	32530	
5018	0	32804	32486	
5019	0	32804	32477	
5020	0	32942	32463	
5021	0	32692	32423	
5022	0	32818	32504	
5023	0	32800	32662	
5024	0	32744	32172	
5025	0	32800	32687	
5026	0	32840	32663	
5027	0	32909	32500	
5028	0	32806	32491	
5029	0	32836	32494	
5030	0	32744	32506	
5031	0	32812	32515	
5032	0	32802	32661	
5033	0	32768	32606	
5034	0	32775	32620	
5035	0	32804	32615	
5036	0	32675	32428	
5037	0	32764	32470	
5038	0	32758	32591	
5039	0	32892	32704	
5040	0	32768	32685	
5041	0	32596	32826	
5042	0	32738	32775	
5043	0	32828	32700	
5044	0	32852	32625	
5045	0	32872	32510	
5046	0	32873	32092	
5047	0	32728	32015	
5048	0	32732	32668	
5049	0	32836	32255	
5050	0	32692	32612	
5051	0	32636	32663	
5052	0	32740	32514	
5053	0	32724	32675	
5054	0	32748	32140	
5055	0	32708	32166	
5056	0	32762	32093	
5057	0	32790	32034	
5058	0	32820	32071	
5059	0	32870	32303	
5060	0	32936	32542	
5061	0	32912	32391	
5062	0	32852	32582	
5063	0	32720	32679	
5064	0	32769	32706	
5065	0	32824	32559	
5066	0	32712	32669	
5067	0	32752	32555	
5068	0	32817	32519	
5069	0	32876	32367	
5070	0	32854	32327	
5071	0	32836	32143	
5072	0	32911	32234	
5073	0	32860	32287	
5074	0	32920	32372	
5075	0	32928	32375	
5076	0	32976	32508	
5077	0	32956	32575	
5078	0	32984	32650	
5079	0	33060	32497	
5080	0	32888	32349	
5081	0	32746	32311	
5082	0	32788	32559	
5083	0	32846	32426	
5084	0	32822	32343	
5085	0	32576	32687	
5086	0	32684	32188	
5087	0	32645	32519	
5088	0	32636	32447	
5089	0	32630	32279	
5090	0	32674	32231	
5091	0	32672	32234	
5092	0	32812	32199	
5093	0	32908	32278	
5094	0	32764	32383	
5095	0	32647	32352	
5096	0	32692	32647	
5097	0	32794	32663	
5098	0	32708	32582	
5099	0	32768	32551	
5100	0	32854	32590	
5101	0	32918	32463	
5102	0	32740	32263	
5103	0	32775	32221	
5104	0	32804	32276	
5105	0	32828	32278	
5106	0	32654	32015	
5107	0	32864	32468	
5108	0	32808	32894	
5109	0	32880	32837	
5110	0	32852	32615	
5111	0	32842	32431	
5112	0	32764	32110	
5113	0	32757	32282	
5114	0	32668	32708	
5115	0	32768	32966	
5116	0	32828	32636	
5117	0	32888	32394	
5118	0	32856	32155	
5119	0	32836	32135	
5120	0	32808	31991	
5121	0	32848	32341	
5122	0	32819	32453	
5123	0	32824	32285	
5124	0	32694	32174	
5125	0	32884	32231	
5126	0	32680	32303	
5127	0	32692	32262	
5128	0	32832	32708	
5129	0	32775	32413	
5130	0	32842	32151	
5131	0	32796	32739	
5132	0	32886	32243	
5133	0	32848	32479	
5134	0	32828	32287	
5135	0	32876	32327	
5136	0	32836	32711	
5137	0	32800	32187	
5138	0	32784	32513	
5139	0	32885	32694	
5140	0	32644	32263	
5141	0	32656	32495	
5142	0	32833	32494	
5143	0	32952	32359	
5144	0	32712	32615	
5145	0	32688	32647	
5146	0	32660	32674	
5147	0	32820	32596	
5148	0	32772	32611	
5149	0	32882	32618	
5150	0	32764	32469	
5151	0	32785	32455	
5152	0	32820	32543	
5153	0	32628	32519	
5154	0	32666	32317	
5155	0	32792	32295	
5156	0	32750	32223	
5157	0	32836	32230	
5158	0	32788	32311	
5159	0	32872	32334	
5160	0	32680	32404	
5161	0	32644	32375	
5162	0	32703	32399	
5163	0	32724	32167	
5164	0	32718	32199	
5165	0	32742	32218	
5166	0	32784	32183	
5167	0	32736	32189	
5168	0	32656	32180	
5169	0	32676	32289	
5170	0	32800	32550	
5171	0	32788	32566	
5172	0	32836	32519	
5173	0	32913	32519	
5174	0	32860	32519	
5175	0	32888	32612	
5176	0	32950	32602	
5177	0	33058	32380	
5178	0	33094	32427	
5179	0	33072	32570	
5180	0	33032	32610	
5181	0	33153	32513	
5182	0	33004	32519	
5183	0	33078	32535	
5184	0	33054	32487	
5185	0	33070	32666	
5186	0	33168	32871	
5187	0	33152	32719	
5188	0	33118	32501	
5189	0	33154	32647	
5190	0	33056	32597	
5191	0	33112	32683	
5192	0	33092	32536	
5193	0	33018	32472	
5194	0	32888	32519	
5195	0	32822	32749	
5196	0	32752	32767	
5197	0	32946	32663	
5198	0	32990	32583	
5199	0	32768	32510	
5200	0	32636	32590	
5201	0	32596	32155	
5202	0	32404	32654	
5203	0	32352	32289	
5204	0	32224	32658	
5205	0	32176	32423	
5206	0	32184	32574	
5207	0	32312	32495	
5208	0	32228	32617	
5209	0	32232	32063	
5210	0	32260	32591	
5211	0	32540	32343	
5212	0	32568	32674	
5213	0	32437	32374	
5214	0	32460	32484	
5215	0	32570	32527	
5216	0	32582	32236	
5217	0	32396	32564	
5218	0	32534	32124	
5219	0	32648	32253	
5220	0	32709	32804	
5221	0	32822	32403	
5222	0	32864	32769	
5223	0	32820	32430	
5224	0	32898	32391	
5225	0	33018	32665	
5226	0	33000	32092	
5227	0	33032	32455	
5228	0	32980	32558	
5229	0	32984	32455	
5230	0	33007	32690	
5231	0	32908	32302	
5232	0	32880	32215	
5233	0	32924	32246	
5234	0	32964	32204	
5235	0	32974	32415	
5236	0	32888	32686	
5237	0	33018	32404	
5238	0	32849	32508	
5239	0	32860	32647	
5240	0	32840	32413	
5241	0	32872	32295	
5242	0	32824	32611	
5243	0	32821	32550	
5244	0	32929	32325	
5245	0	33008	32263	
5246	0	32960	32255	
5247	0	32868	32247	
5248	0	32762	32730	
5249	0	32800	32716	
5250	0	32788	32573	
5251	0	32692	32327	
5252	0	32726	32164	
5253	0	32724	31871	
5254	0	32778	32263	
5255	0	32774	32571	
5256	0	32842	32391	
5257	0	32838	32283	
5258	0	32868	32511	
5259	0	32872	32767	
5260	0	32776	32615	
5261	0	32846	32188	
5262	0	32798	32119	
5263	0	32710	32298	
5264	0	32804	32335	
5265	0	32684	32247	
5266	0	32810	32380	
5267	0	32792	32389	
5268	0	32852	32364	
5269	0	32808	32404	
5270	0	32876	32591	
5271	0	32884	32639	
5272	0	32801	32706	
5273	0	32910	32700	
5274	0	32868	32711	
5275	0	32748	32614	
5276	0	32786	32607	
5277	0	32842	32554	
5278	0	32808	32231	
5279	0	32784	31711	
5280	0	32708	32254	
5281	0	32824	32717	
5282	0	32884	32877	
5283	0	32846	32719	
5284	0	32774	32572	
5285	0	32808	32519	
5286	0	32758	32411	
5287	0	32834	32299	
5288	0	32876	32188	
5289	0	32850	32231	
5290	0	32834	32263	
5291	0	32768	32364	
5292	0	32808	32353	
5293	0	32940	32434	
5294	0	32724	32686	
5295	0	32704	32263	
5296	0	32720	32723	
5297	0	32846	32135	
5298	0	32806	32638	
5299	0	32828	32150	
5300	0	32718	32606	
5301	0	32775	32244	
5302	0	32764	32634	
5303	0	32868	32223	
5304	0	32786	32574	
5305	0	32774	32423	
5306	0	32872	32410	
5307	0	32814	32412	
5308	0	32652	32162	
5309	0	32844	32631	
5310	0	32772	32338	
5311	0	32824	32567	
5312	0	32788	32533	
5313	0	32864	32261	
5314	0	32834	32647	
5315	0	32880	32234	
5316	0	32884	32547	
5317	0	32816	32463	
5318	0	32804	32302	
5319	0	32756	32662	
5320	0	32836	32263	
5321	0	32808	32637	
5322	0	32822	32358	
5323	0	32740	32180	
5324	0	32860	32631	
5325	0	32889	32437	
5326	0	32784	32326	
5327	0	32834	32719	
5328	0	32730	32164	
5329	0	32684	32532	
5330	0	32856	32190	
5331	0	32852	32458	
5332	0	32782	32282	
5333	0	32942	32455	
5334	0	32732	32284	
5335	0	32660	32547	
5336	0	32782	32547	
5337	0	32764	32287	
5338	0	32657	32637	
5339	0	32832	32340	
5340	0	32872	32791	
5341	0	32874	32469	
5342	0	32857	32353	
5343	0	32844	32260	
5344	0	32828	32467	
5345	0	32748	32391	
5346	0	32752	32373	
5347	0	32752	32295	
5348	0	32858	32410	
5349	0	32856	32366	
5350	0	32852	32389	
5351	0	32740	32427	
5352	0	32774	32389	
5353	0	32808	32615	
5354	0	32682	32660	
5355	0	32790	32667	
5356	0	32776	32687	
5357	0	32881	32559	
5358	0	32870	32310	
5359	0	32844	32282	
5360	0	32872	32318	
5361	0	32748	32411	
5362	0	32830	32459	
5363	0	32844	32470	
5364	0	32794	32467	
5365	0	32815	32633	
5366	0	32858	32436	
5367	0	32805	32348	
5368	0	32756	32364	
5369	0	32852	32263	
5370	0	32824	32415	
5371	0	32796	32583	
5372	0	32844	32660	
5373	0	32788	32710	
5374	0	32752	32719	
5375	0	32828	32535	
5376	0	32785	32238	
5377	0	32778	32308	
5378	0	32773	32403	
5379	0	32712	32638	
5380	0	32696	32607	
5381	0	32720	32616	
5382	0	32767	32679	
5383	0	32774	32660	
5384	0	32756	32450	
5385	0	32820	32359	
5386	0	32886	32407	
5387	0	32924	32339	
5388	0	32830	32347	
5389	0	32760	32346	
5390	0	32832	32391	
5391	0	32864	32294	
5392	0	32822	32259	
5393	0	32820	32215	
5394	0	32820	32289	
5395	0	32744	32359	
5396	0	32751	32391	
5397	0	32756	32471	
5398	0	32800	32519	
5399	0	32808	32379	
5400	0	32832	32263	
5401	0	32766	32235	
5402	0	32794	32343	
5403	0	32806	32634	
5404	0	32812	32628	
5405	0	32772	32590	
5406	0	32768	32487	
5407	0	32800	32332	
5408	0	32742	32263	
5409	0	32892	32348	
5410	0	32870	32191	
5411	0	32832	32227	
5412	0	32852	32247	
5413	0	32924	32244	
5414	0	32906	32263	
5415	0	32804	32236	
5416	0	32856	32263	
5417	0	32840	32212	
5418	0	32742	32212	
5419	0	32740	32387	
5420	0	32732	32683	
5421	0	32740	32628	
5422	0	32804	32563	
5423	0	32844	32263	
5424	0	32752	32242	
5425	0	32848	32285	
5426	0	32794	32179	
5427	0	32803	32332	
5428	0	32802	32431	
5429	0	32848	32412	
5430	0	32808	32423	
5431	0	32676	32263	
5432	0	32824	32131	
5433	0	32780	32191	
5434	0	32842	32382	
5435	0	32772	32679	
5436	0	32924	32567	
5437	0	32924	32359	
5438	0	32984	32191	
5439	0	32808	32023	
5440	0	32644	31999	
5441	0	32568	32487	
5442	0	32614	32420	
5443	0	32704	32310	
5444	0	32894	32796	
5445	0	32740	32775	
5446	0	32772	32725	
5447	0	32788	33201	
5448	0	32932	33318	
5449	0	32840	32842	
5450	0	32692	32707	
5451	0	32744	32711	
5452	0	32980	32106	
5453	0	32912	31974	
5454	0	32836	32018	
5455	0	32956	32151	
5456	0	32740	32422	
5457	0	32836	32855	
5458	0	32810	32895	
5459	0	32636	32719	
5460	0	32718	32679	
5461	0	32826	32549	
5462	0	32775	32524	
5463	0	32740	32346	
5464	0	32644	31999	
5465	0	32564	31788	
5466	0	32564	31751	
5467	0	32705	31903	
5468	0	32716	31926	
5469	0	32196	31994	
5470	0	31824	32086	
5471	0	32070	32223	
5472	0	32612	32423	
5473	0	33084	32493	
5474	0	33338	32420	
5475	0	33278	32511	
5476	0	32998	32035	
5477	0	33052	32320	
5478	0	32934	32079	
5479	0	32464	32063	
5480	0	31556	32646	
5481	0	31697	32569	
5482	0	32236	32623	
5483	0	32904	33171	
5484	0	33520	32615	
5485	0	34087	33031	
5486	0	34624	32935	
5487	0	34646	32676	
5488	0	34340	32942	
5489	0	33904	32483	
5490	0	33716	32478	
5491	0	33716	32332	
5492	0	33604	31908	
5493	0	33178	32604	
5494	0	32596	32399	
5495	0	32564	32627	
5496	0	32502	32590	
5497	0	32212	32460	
5498	0	31782	32478	
5499	0	31810	32462	
5500	0	31976	32494	
5501	0	32274	32468	
5502	0	32388	32278	
5503	0	32448	32149	
5504	0	32492	32558	
5505	0	32476	32835	
5506	0	32524	32699	
5507	0	32380	32686	
5508	0	32456	32303	
5509	0	32788	32129	
5510	0	32876	32036	
5511	0	33002	32002	
5512	0	32902	31941	
5513	0	32858	32423	
5514	0	32964	32098	
5515	0	32913	32414	
5516	0	32905	31898	
5517	0	32756	32175	
5518	0	32756	31903	
5519	0	32628	31948	
5520	0	32504	31554	
5521	0	32744	31578	
5522	0	32922	32199	
5523	0	32736	32047	
5524	0	32644	32467	
5525	0	32839	32350	
5526	0	33154	32527	
5527	0	33216	32663	
5528	0	33032	32508	
5529	0	32599	32327	
5530	0	32280	32490	
5531	0	32294	32377	
5532	0	32466	32217	
5533	0	32706	32486	
5534	0	33012	32604	
5535	0	33140	33262	
5536	0	33007	33695	
5537	0	32612	33982	
5538	0	32464	33863	
5539	0	32430	33426	
5540	0	32593	33383	
5541	0	32710	33053	
5542	0	32881	32759	
5543	0	32932	32519	
5544	0	32808	32719	
5545	0	32860	33031	
5546	0	32980	32735	
5547	0	32788	32605	
5548	0	32588	32827	
5549	0	32856	32359	
5550	0	32962	32586	
5551	0	32676	32815	
5552	0	32520	32604	
5553	0	32412	32551	
5554	0	32606	32135	
5555	0	32686	32528	
5556	0	32644	32508	
5557	0	32810	32375	
5558	0	32976	32479	
5559	0	33192	32470	
5560	0	33268	32191	
5561	0	33092	32366	
5562	0	33104	32759	
5563	0	33188	32508	
5564	0	32988	32121	
5565	0	32862	32286	
5566	0	32986	31847	
5567	0	32882	32132	
5568	0	32972	31510	
5569	0	32744	31654	
5570	0	32568	31140	
5571	0	32644	31700	
5572	0	32662	31452	
5573	0	32888	32002	
5574	0	32932	32127	
5575	0	32214	32048	
5576	0	31680	32317	
5577	0	31776	32355	
5578	0	31500	32419	
5579	0	31416	32542	
5580	0	31680	32831	
5581	0	32220	33031	
5582	0	32956	33206	
5583	0	33566	33110	
5584	0	33552	33001	
5585	0	33767	32899	
5586	0	34012	33062	
5587	0	34262	32883	
5588	0	34522	32559	
5589	0	34102	32476	
5590	0	33784	32541	
5591	0	33984	32412	
5592	0	33860	31999	
5593	0	33516	32002	
5594	0	33188	31955	
5595	0	33004	32046	
5596	0	32628	32159	
5597	0	32428	32534	
5598	0	32416	32514	
5599	0	32412	32623	
5600	0	32388	32468	
5601	0	32188	32447	
5602	0	32106	32389	
5603	0	32172	32263	
5604	0	32256	32223	
5605	0	32412	32551	
5606	0	32290	32551	
5607	0	32304	32692	
5608	0	32385	32127	
5609	0	32440	31670	
5610	0	32480	31773	
5611	0	32714	31991	
5612	0	32721	31995	
5613	0	32622	32076	
5614	0	32704	32404	
5615	0	32808	31979	
5616	0	32860	31959	
5617	0	32996	32334	
5618	0	32986	33570	
5619	0	33120	32980	
5620	0	33165	33059	
5621	0	32900	32615	
5622	0	32724	32542	
5623	0	32772	32535	
5624	0	32744	32407	
5625	0	32632	32335	
5626	0	32612	32286	
5627	0	32684	32426	
5628	0	32698	32228	
5629	0	32597	32054	
5630	0	32632	31852	
5631	0	32850	32061	
5632	0	32836	32436	
5633	0	32784	32582	
5634	0	32788	32731	
5635	0	32716	33284	
5636	0	32775	33271	
5637	0	32688	33199	
5638	0	32710	33189	
5639	0	32852	33172	
5640	0	32902	33322	
5641	0	32894	33359	
5642	0	32892	33479	
5643	0	32842	34116	
5644	0	32808	33151	
5645	0	32820	32636	
5646	0	32798	32215	
5647	0	32884	31683	
5648	0	32982	31415	
5649	0	32980	31239	
5650	0	32990	31035	
5651	0	32752	31055	
5652	0	32744	31295	
5653	0	32716	31607	
5654	0	32658	31863	
5655	0	32856	31871	
5656	0	32876	31846	
5657	0	32647	31697	
5658	0	32812	32090	
5659	0	32686	32459	
5660	0	32748	32815	
5661	0	32802	33157	
5662	0	32870	33543	
5663	0	32864	33957	
5664	0	32800	34331	
5665	0	32702	33924	
5666	0	32668	33711	
5667	0	32688	33062	
5668	0	32808	32511	
5669	0	32860	32215	
5670	0	32692	32443	
5671	0	32704	32451	
5672	0	32860	32182	
5673	0	33018	32092	
5674	0	33007	31775	
5675	0	32952	31383	
5676	0	32992	31279	
5677	0	32812	31458	
5678	0	32716	31338	
5679	0	32752	31415	
5680	0	32893	31670	
5681	0	32900	32007	
5682	0	32886	32391	
5683	0	32868	32618	
5684	0	32896	32580	
5685	0	32832	32227	
5686	0	32788	31954	
5687	0	32824	32151	
5688	0	32924	32103	
5689	0	33038	31991	
5690	0	32852	32703	
5691	0	32508	33503	
5692	0	32452	34374	
5693	0	32468	35250	
5694	0	32680	35299	
5695	0	32690	34210	
5696	0	32606	32722	
5697	0	32612	32207	
5698	0	32618	31428	
5699	0	32880	30766	
5700	0	33040	30711	
5701	0	32928	30743	
5702	0	32928	31164	
5703	0	32919	32047	
5704	0	32864	32679	
5705	0	32798	32839	
5706	0	32802	32465	
5707	0	32868	32197	
5708	0	32844	31735	
5709	0	32884	31597	
5710	0	32660	31564	
5711	0	32608	31674	
5712	0	32784	32098	
5713	0	32789	32643	
5714	0	32751	32641	
5715	0	32834	33031	
5716	0	32848	32838	
5717	0	33006	33114	
5718	0	32880	32854	
5719	0	32884	33236	
5720	0	32775	33344	
5721	0	32676	33169	
5722	0	32480	33478	
5723	0	32490	33636	
5724	0	32468	33415	
5725	0	32680	33159	
5726	0	32882	32375	
5727	0	32940	31924	
