# OpenSignals Text File Format. Version 1
# {"00:07:80:4B:3C:23": {"position": 0, "device": "biosignalsplux", "device name": "00:07:80:4B:3C:23", "device connection": "BTH00:07:80:4B:3C:23", "sampling rate": 1000, "resolution": [16, 16], "firmware version": 776, "comments": "", "keywords": "", "mode": 0, "sync interval": 2, "date": "2024-9-26", "time": "11:52:41.520", "channels": [5, 7], "sensor": ["EMG", "EMG"], "label": ["CH5", "CH7"], "column": ["nSeq", "DI", "CH5", "CH7"], "special": [{"SpO2": [80, 40, 5, 4, 3, 3]}, {"SpO2": [80, 40, 5, 4, 3, 3]}, {"SpO2": [80, 40, 5, 4, 3, 3]}, {"SpO2": [80, 40, 5, 4, 3, 3]}, {"SpO2": [80, 40, 5, 4, 3, 3]}, {"SpO2": [80, 40, 5, 4, 3, 3]}, {"SpO2": [80, 40, 5, 4, 3, 3]}, {"SpO2": [80, 40, 5, 4, 3, 3]}], "digital IO": [0, 1], "sleeve color": ["gray", "brown"]}}
# EndOfHeader
0	0	32740	32319	
1	0	32876	32351	
2	0	32816	32335	
3	0	32816	32254	
4	0	32796	32191	
5	0	32825	32344	
6	0	32782	32607	
7	0	32775	32212	
8	0	32848	32468	
9	0	32772	32414	
10	0	32780	32299	
11	0	32750	32623	
12	0	32792	32279	
13	0	32796	32383	
14	0	32844	32519	
15	0	32814	32263	
16	0	32780	32559	
17	0	32852	32239	
18	0	32824	32668	
19	0	32708	32156	
20	0	32724	32627	
21	0	32727	32263	
22	0	32776	32415	
23	0	32808	32550	
24	0	32836	32375	
25	0	32727	32495	
26	0	32825	32191	
27	0	32802	32615	
28	0	32788	32187	
29	0	32848	32647	
30	0	32754	32178	
31	0	32792	32583	
32	0	32832	32220	
33	0	32828	32506	
34	0	32756	32519	
35	0	32828	32214	
36	0	32862	32575	
37	0	32820	32487	
38	0	32916	32213	
39	0	32775	32471	
40	0	32862	32347	
41	0	32808	32287	
42	0	32900	32670	
43	0	32836	32262	
44	0	32784	32294	
45	0	32660	32620	
46	0	32688	32359	
47	0	32730	32358	
48	0	32656	32575	
49	0	32592	32231	
50	0	32528	32199	
51	0	32472	32235	
52	0	32456	32295	
53	0	32542	32380	
54	0	32548	32414	
55	0	32630	32570	
56	0	32714	32692	
57	0	32744	32662	
58	0	32824	32255	
59	0	32812	32375	
60	0	32804	32608	
61	0	33076	32244	
62	0	33024	32423	
63	0	33000	32591	
64	0	32993	32305	
65	0	32972	32706	
66	0	32938	32310	
67	0	32810	32399	
68	0	33004	32602	
69	0	32920	32159	
70	0	32828	32644	
71	0	32884	32356	
72	0	32948	32369	
73	0	32968	32607	
74	0	32975	32119	
75	0	32986	32412	
76	0	33016	32500	
77	0	32996	32292	
78	0	32932	32708	
79	0	32980	32263	
80	0	33068	32492	
81	0	33080	32495	
82	0	33116	32231	
83	0	32974	32685	
84	0	32964	32303	
85	0	32904	32511	
86	0	32940	32218	
87	0	32776	32705	
88	0	32698	32234	
89	0	32631	32620	
90	0	32508	32103	
91	0	32478	32700	
92	0	32524	32223	
93	0	32550	32701	
94	0	32596	32287	
95	0	32524	32422	
96	0	32558	32614	
97	0	32564	32207	
98	0	32652	32263	
99	0	32647	32542	
100	0	32714	32216	
101	0	32808	32421	
102	0	32830	32574	
103	0	32858	32263	
104	0	32852	32508	
105	0	32894	32454	
106	0	32788	32391	
107	0	32902	32623	
108	0	32821	32228	
109	0	32902	32473	
110	0	32802	32484	
111	0	32812	32217	
112	0	32830	32487	
113	0	32900	32583	
114	0	32824	32263	
115	0	32821	32491	
116	0	32706	32548	
117	0	32592	32231	
118	0	32873	32693	
119	0	32916	32223	
120	0	32912	32386	
121	0	32952	32575	
122	0	32824	32263	
123	0	32782	32563	
124	0	32712	32151	
125	0	32830	32655	
126	0	32764	32149	
127	0	32836	32541	
128	0	32821	32564	
129	0	32868	32231	
130	0	32868	32438	
131	0	32844	32295	
132	0	32804	32167	
133	0	32822	32358	
134	0	32732	32599	
135	0	32688	32615	
136	0	32766	32507	
137	0	32769	32582	
138	0	32754	32604	
139	0	32708	32555	
140	0	32788	32430	
141	0	32760	32263	
142	0	32804	32601	
143	0	32772	32606	
144	0	32756	32628	
145	0	32824	32656	
146	0	32764	32638	
147	0	32612	32658	
148	0	32524	32500	
149	0	32520	32327	
150	0	32554	32244	
151	0	32588	32222	
152	0	32496	32495	
153	0	32404	32619	
154	0	32461	32626	
155	0	32470	32444	
156	0	32438	32334	
157	0	32404	32183	
158	0	32424	32246	
159	0	32518	32602	
160	0	32560	32604	
161	0	32472	32492	
162	0	32340	32298	
163	0	32316	32222	
164	0	32119	32495	
165	0	32226	32578	
166	0	32536	32611	
167	0	32868	32359	
168	0	33154	32345	
169	0	33100	32310	
170	0	33032	32679	
171	0	33272	32165	
172	0	33348	32636	
173	0	33396	32276	
174	0	34028	32425	
175	0	34204	32472	
176	0	34216	32294	
177	0	34364	32659	
178	0	34512	32316	
179	0	34452	32331	
180	0	34122	32503	
181	0	33756	32085	
182	0	33716	32577	
183	0	33816	32471	
184	0	33696	32177	
185	0	33464	32368	
186	0	33040	32564	
187	0	32788	32315	
188	0	32864	32663	
189	0	33184	32263	
190	0	33688	32656	
191	0	33718	32321	
192	0	33708	32475	
193	0	33544	32487	
194	0	33092	32277	
195	0	32794	32628	
196	0	32672	32255	
197	0	32336	32679	
198	0	31996	32246	
199	0	31564	32399	
200	0	30990	32639	
201	0	30622	32251	
202	0	30732	32519	
203	0	30792	32423	
204	0	30808	32204	
205	0	30836	32188	
206	0	30992	32388	
207	0	31196	32468	
208	0	31417	32613	
209	0	31584	32636	
210	0	31774	32483	
211	0	31908	32438	
212	0	32194	32263	
213	0	32368	32188	
214	0	32652	32234	
215	0	32940	32430	
216	0	33090	32562	
217	0	33386	32590	
218	0	33452	32705	
219	0	33572	32398	
220	0	33592	32391	
221	0	33492	32360	
222	0	33446	32287	
223	0	33416	32234	
224	0	33312	32275	
225	0	33256	32262	
226	0	33144	32312	
227	0	33124	32390	
228	0	33056	32420	
229	0	33078	32415	
230	0	33032	32487	
231	0	32956	32356	
232	0	32996	32351	
233	0	32974	32414	
234	0	32894	32293	
235	0	32932	32359	
236	0	32886	32263	
237	0	32948	32182	
238	0	32892	32159	
239	0	32852	32197	
240	0	32804	32332	
241	0	32838	32554	
242	0	32812	32628	
243	0	32804	32647	
244	0	32784	32414	
245	0	32808	32292	
246	0	32774	32198	
247	0	32812	32670	
248	0	32804	32415	
249	0	32860	32213	
250	0	32832	32661	
251	0	32844	32399	
252	0	32812	32238	
253	0	32772	32607	
254	0	32708	32295	
255	0	32796	32327	
256	0	32804	32667	
257	0	32820	32260	
258	0	32772	32397	
259	0	32824	32726	
260	0	32772	32391	
261	0	32782	32290	
262	0	32852	32519	
263	0	32878	32209	
264	0	32860	32603	
265	0	32818	32263	
266	0	32894	32669	
267	0	32804	32227	
268	0	32776	32700	
269	0	32754	32180	
270	0	32724	32660	
271	0	32784	32190	
272	0	32760	32599	
273	0	32834	32308	
274	0	32780	32667	
275	0	32824	32185	
276	0	32832	32638	
277	0	32776	32263	
278	0	32756	32647	
279	0	32796	32191	
280	0	32782	32451	
281	0	32800	32575	
282	0	32817	32237	
283	0	32766	32433	
284	0	32749	32582	
285	0	32714	32295	
286	0	32736	32359	
287	0	32756	32578	
288	0	32808	32167	
289	0	32954	32625	
290	0	32878	32439	
291	0	32908	32174	
292	0	32812	32718	
293	0	32893	32294	
294	0	32812	32399	
295	0	32757	32356	
296	0	32768	32250	
297	0	32796	32253	
298	0	32772	32439	
299	0	32726	32551	
300	0	32794	32631	
301	0	32756	32684	
302	0	32828	32669	
303	0	32772	32624	
304	0	32728	32495	
305	0	32726	32454	
306	0	32784	32382	
307	0	32752	32415	
308	0	32800	32413	
309	0	32788	32387	
310	0	32836	32386	
311	0	32860	32425	
312	0	32768	32455	
313	0	32754	32412	
314	0	32836	32318	
315	0	32818	32143	
316	0	32878	32174	
317	0	32824	32366	
318	0	32774	32501	
319	0	32799	32607	
320	0	32804	32407	
321	0	32884	32287	
322	0	32764	32180	
323	0	32758	32203	
324	0	32799	32359	
325	0	32740	32500	
326	0	32730	32572	
327	0	32796	32719	
328	0	32764	32476	
329	0	32876	32277	
330	0	32776	32206	
331	0	32853	32231	
332	0	32732	32456	
333	0	32796	32642	
334	0	32806	32436	
335	0	32806	32292	
336	0	32872	32316	
337	0	32748	32259	
338	0	32860	32143	
339	0	32828	32494	
340	0	32804	32351	
341	0	32799	32367	
342	0	32769	32534	
343	0	32820	32239	
344	0	32808	32302	
345	0	32800	32237	
346	0	32815	32263	
347	0	32754	32263	
348	0	32758	32150	
349	0	32744	32422	
350	0	32748	32364	
351	0	32850	32309	
352	0	32774	32482	
353	0	32792	32391	
354	0	32840	32341	
355	0	32804	32671	
356	0	32768	32175	
357	0	32779	32449	
358	0	32768	32511	
359	0	32830	32190	
360	0	32824	32282	
361	0	32822	32540	
362	0	32788	32693	
363	0	32782	32390	
364	0	32844	32253	
365	0	32750	32356	
366	0	32790	32638	
367	0	32860	32423	
368	0	32860	32276	
369	0	32804	32639	
370	0	32752	32307	
371	0	32844	32189	
372	0	32824	32647	
373	0	32832	32455	
374	0	32836	32206	
375	0	32807	32461	
376	0	32758	32547	
377	0	32756	32263	
378	0	32794	32351	
379	0	32802	32687	
380	0	32864	32354	
381	0	32804	32302	
382	0	32890	32660	
383	0	32788	32555	
384	0	32794	32282	
385	0	32828	32255	
386	0	32892	32484	
387	0	32789	32573	
388	0	32812	32211	
389	0	32796	32369	
390	0	32830	32639	
391	0	32756	32199	
392	0	32796	32319	
393	0	32816	32647	
394	0	32768	32263	
395	0	32738	32355	
396	0	32812	32631	
397	0	32760	32415	
398	0	32840	32182	
399	0	32774	32332	
400	0	32845	32644	
401	0	32820	32543	
402	0	32822	32252	
403	0	32800	32342	
404	0	32730	32647	
405	0	32747	32479	
406	0	32744	32296	
407	0	32782	32612	
408	0	32860	32263	
409	0	32832	32362	
410	0	32790	32631	
411	0	32856	32618	
412	0	32772	32683	
413	0	32852	32694	
414	0	32813	32667	
415	0	32804	32535	
416	0	32734	32327	
417	0	32768	32263	
418	0	32772	32183	
419	0	32754	32260	
420	0	32791	32175	
421	0	32825	32301	
422	0	32788	32387	
423	0	32772	32462	
424	0	32824	32532	
425	0	32800	32629	
426	0	32732	32606	
427	0	32812	32385	
428	0	32806	32342	
429	0	32786	32605	
430	0	32770	32291	
431	0	32830	32235	
432	0	32750	32647	
433	0	32802	32404	
434	0	32720	32172	
435	0	32772	32431	
436	0	32780	32562	
437	0	32844	32228	
438	0	32768	32519	
439	0	32824	32455	
440	0	32838	32263	
441	0	32744	32580	
442	0	32888	32323	
443	0	32802	32411	
444	0	32804	32558	
445	0	32778	32226	
446	0	32801	32428	
447	0	32744	32503	
448	0	32798	32230	
449	0	32780	32700	
450	0	32784	32261	
451	0	32801	32235	
452	0	32756	32475	
453	0	32774	32591	
454	0	32782	32191	
455	0	32782	32262	
456	0	32804	32378	
457	0	32794	32234	
458	0	32864	32238	
459	0	32878	32439	
460	0	32844	32683	
461	0	32864	32679	
462	0	32864	32295	
463	0	32838	32223	
464	0	32785	32324	
465	0	32836	32571	
466	0	32860	32639	
467	0	32782	32473	
468	0	32738	32279	
469	0	32788	32094	
470	0	32870	32310	
471	0	32780	32519	
472	0	32796	32647	
473	0	32782	32646	
474	0	32860	32388	
475	0	32796	32316	
476	0	32849	32230	
477	0	32848	32166	
478	0	32808	32292	
479	0	32862	32480	
480	0	32820	32543	
481	0	32775	32199	
482	0	32780	32407	
483	0	32820	32597	
484	0	32780	32263	
485	0	32884	32484	
486	0	32817	32380	
487	0	32812	32399	
488	0	32804	32636	
489	0	32888	32184	
490	0	32740	32615	
491	0	32798	32207	
492	0	32834	32467	
493	0	32738	32534	
494	0	32716	32182	
495	0	32760	32182	
496	0	32734	32226	
497	0	32800	32356	
498	0	32840	32436	
499	0	32758	32166	
500	0	32738	32602	
501	0	32776	32358	
502	0	32844	32347	
503	0	32868	32564	
504	0	32804	32187	
505	0	32808	32514	
506	0	32764	32503	
507	0	32750	32227	
508	0	32801	32476	
509	0	32786	32513	
510	0	32744	32183	
511	0	32716	32452	
512	0	32804	32647	
513	0	32806	32172	
514	0	32796	32423	
515	0	32868	32581	
516	0	32772	32218	
517	0	32853	32516	
518	0	32740	32455	
519	0	32798	32263	
520	0	32806	32670	
521	0	32720	32295	
522	0	32800	32195	
523	0	32774	32167	
524	0	32808	32180	
525	0	32864	32286	
526	0	32740	32258	
527	0	32736	32615	
528	0	32786	32218	
529	0	32872	32612	
530	0	32844	32302	
531	0	32720	32475	
532	0	32788	32500	
533	0	32822	32359	
534	0	32792	32503	
535	0	32744	32255	
536	0	32828	32658	
537	0	32818	32327	
538	0	32820	32213	
539	0	32848	32647	
540	0	32768	32350	
541	0	32816	32231	
542	0	32816	32607	
543	0	32784	32591	
544	0	32820	32602	
545	0	32844	32199	
546	0	32796	32327	
547	0	32878	32588	
548	0	32804	32181	
549	0	32828	32647	
550	0	32786	32414	
551	0	32734	32306	
552	0	32817	32692	
553	0	32812	32316	
554	0	32796	32394	
555	0	32842	32647	
556	0	32828	32232	
557	0	32820	32399	
558	0	32775	32622	
559	0	32860	32191	
560	0	32802	32354	
561	0	32792	32593	
562	0	32834	32188	
563	0	32788	32391	
564	0	32796	32590	
565	0	32812	32186	
566	0	32728	32407	
567	0	32737	32438	
568	0	32848	32282	
569	0	32834	32685	
570	0	32828	32182	
571	0	32822	32341	
572	0	32852	32263	
573	0	32788	32205	
574	0	32714	32163	
575	0	32714	32218	
576	0	32858	32222	
577	0	32748	32186	
578	0	32820	32258	
579	0	32828	32246	
580	0	32820	32183	
581	0	32828	32182	
582	0	32840	32183	
583	0	32884	32175	
584	0	32810	32222	
585	0	32744	32227	
586	0	32744	32236	
587	0	32774	32215	
588	0	32824	32212	
589	0	32892	32247	
590	0	32852	32335	
591	0	32712	32476	
592	0	32784	32578	
593	0	32785	32663	
594	0	32857	32676	
595	0	32748	32466	
596	0	32804	32390	
597	0	32762	32243	
598	0	32761	32231	
599	0	32796	32188	
600	0	32828	32247	
601	0	32824	32164	
602	0	32778	32263	
603	0	32758	32423	
604	0	32808	32571	
605	0	32788	32751	
606	0	32860	32631	
607	0	32868	32279	
608	0	32757	32212	
609	0	32780	32631	
610	0	32889	32467	
611	0	32768	32204	
612	0	32774	32610	
613	0	32828	32402	
614	0	32774	32302	
615	0	32732	32596	
616	0	32790	32221	
617	0	32860	32701	
618	0	32792	32287	
619	0	32786	32463	
620	0	32780	32295	
621	0	32837	32591	
622	0	32788	32287	
623	0	32804	32357	
624	0	32804	32298	
625	0	32781	32446	
626	0	32801	32222	
627	0	32842	32486	
628	0	32786	32282	
629	0	32772	32431	
630	0	32852	32471	
631	0	32820	32343	
632	0	32768	32517	
633	0	32845	32237	
634	0	32788	32630	
635	0	32812	32221	
636	0	32752	32679	
637	0	32794	32278	
638	0	32820	32338	
639	0	32838	32711	
640	0	32786	32199	
641	0	32746	32383	
642	0	32744	32572	
643	0	32756	32207	
644	0	32822	32655	
645	0	32798	32361	
646	0	32704	32340	
647	0	32776	32634	
648	0	32900	32279	
649	0	32844	32679	
650	0	32874	32210	
651	0	32868	32495	
652	0	32740	32210	
653	0	32772	32433	
654	0	32746	32450	
655	0	32788	32327	
656	0	32780	32529	
657	0	32766	32332	
658	0	32804	32415	
659	0	32862	32535	
660	0	32856	32207	
661	0	32809	32647	
662	0	32760	32199	
663	0	32712	32499	
664	0	32841	32220	
665	0	32732	32652	
666	0	32732	32263	
667	0	32775	32539	
668	0	32768	32239	
669	0	32774	32455	
670	0	32820	32231	
671	0	32768	32646	
672	0	32869	32207	
673	0	32791	32455	
674	0	32784	32250	
675	0	32782	32575	
676	0	32796	32238	
677	0	32794	32444	
678	0	32702	32466	
679	0	32704	32226	
680	0	32756	32666	
681	0	32836	32223	
682	0	32742	32487	
683	0	32814	32378	
684	0	32852	32399	
685	0	32920	32431	
686	0	32900	32383	
687	0	32964	32603	
688	0	32932	32178	
689	0	32870	32583	
690	0	32806	32223	
691	0	32596	32642	
692	0	32496	32191	
693	0	32470	32519	
694	0	32436	32405	
695	0	32446	32344	
696	0	32486	32471	
697	0	32540	32286	
698	0	32610	32490	
699	0	32622	32308	
700	0	32758	32422	
701	0	32920	32263	
702	0	32932	32626	
703	0	32916	32182	
704	0	32996	32492	
705	0	32998	32455	
706	0	32848	32295	
707	0	32922	32604	
708	0	32982	32243	
709	0	32934	32647	
710	0	32912	32175	
711	0	32932	32518	
712	0	32908	32343	
713	0	33016	32484	
714	0	32983	32431	
715	0	33094	32231	
716	0	33004	32692	
717	0	33088	32295	
718	0	33092	32474	
719	0	33102	32418	
720	0	32932	32318	
721	0	32780	32604	
722	0	32908	32199	
723	0	32764	32533	
724	0	32896	32193	
725	0	32984	32679	
726	0	33002	32166	
727	0	32928	32431	
728	0	32775	32563	
729	0	32796	32243	
730	0	32820	32626	
731	0	32732	32283	
732	0	32716	32567	
733	0	32756	32322	
734	0	32688	32638	
735	0	32654	32668	
736	0	32652	32574	
737	0	32572	32554	
738	0	32572	32279	
739	0	32676	32487	
740	0	32705	32477	
741	0	32532	32316	
742	0	32608	32349	
743	0	32680	32532	
744	0	32680	32235	
745	0	32692	32679	
746	0	32632	32250	
747	0	32804	32397	
748	0	32792	32591	
749	0	32784	32222	
750	0	32872	32338	
751	0	32888	32588	
752	0	32848	32190	
753	0	32816	32441	
754	0	32804	32476	
755	0	32806	32263	
756	0	32816	32620	
757	0	32832	32212	
758	0	32836	32471	
759	0	32849	32431	
760	0	32898	32315	
761	0	32856	32380	
762	0	32832	32420	
763	0	32844	32423	
764	0	32862	32333	
765	0	32996	32486	
766	0	32910	32407	
767	0	32812	32447	
768	0	32812	32346	
769	0	32885	32554	
770	0	32908	32311	
771	0	32896	32603	
772	0	32720	32189	
773	0	32876	32627	
774	0	32796	32217	
775	0	32760	32615	
776	0	32813	32223	
777	0	32766	32662	
778	0	32724	32181	
779	0	32840	32634	
780	0	32766	32263	
781	0	32760	32431	
782	0	32696	32482	
783	0	32732	32306	
784	0	32856	32554	
785	0	32794	32263	
786	0	32804	32582	
787	0	32816	32204	
788	0	32788	32670	
789	0	32792	32310	
790	0	32822	32423	
791	0	32792	32537	
792	0	32692	32190	
793	0	32664	32647	
794	0	32648	32311	
795	0	32640	32287	
796	0	32616	32565	
797	0	32536	32261	
798	0	32576	32666	
799	0	32540	32188	
800	0	32440	32656	
801	0	32503	32184	
802	0	32432	32678	
803	0	32552	32180	
804	0	32388	32626	
805	0	32446	32174	
806	0	32510	32452	
807	0	32636	32337	
808	0	32578	32415	
809	0	32388	32316	
810	0	32446	32431	
811	0	32204	32374	
812	0	32216	32489	
813	0	32360	32239	
814	0	32650	32455	
815	0	32784	32376	
816	0	32836	32367	
817	0	32920	32423	
818	0	33116	32212	
819	0	33238	32627	
820	0	33502	32206	
821	0	33858	32174	
822	0	34204	32255	
823	0	34326	32206	
824	0	34180	32183	
825	0	34156	32215	
826	0	33840	32307	
827	0	33505	32343	
828	0	33505	32455	
829	0	33664	32206	
830	0	33900	32607	
831	0	33602	32159	
832	0	33372	32558	
833	0	33268	32182	
834	0	33140	32620	
835	0	32920	32215	
836	0	33112	32708	
837	0	33380	32206	
838	0	33556	32557	
839	0	33828	32628	
840	0	33940	32200	
841	0	33802	32663	
842	0	33392	32290	
843	0	33096	32362	
844	0	32674	32578	
845	0	32172	32213	
846	0	31864	32686	
847	0	31412	32545	
848	0	31023	32214	
849	0	30908	32441	
850	0	30990	32518	
851	0	30978	32252	
852	0	30976	32484	
853	0	31042	32164	
854	0	31044	32564	
855	0	31284	32181	
856	0	31556	32586	
857	0	31786	32239	
858	0	32008	32461	
859	0	32228	32546	
860	0	32408	32183	
861	0	32516	32511	
862	0	32688	32343	
863	0	32802	32375	
864	0	32964	32447	
865	0	33162	32206	
866	0	33337	32423	
867	0	33356	32476	
868	0	33376	32166	
869	0	33348	32607	
870	0	33284	32415	
871	0	33260	32186	
872	0	33208	32675	
873	0	33192	32247	
874	0	33158	32535	
875	0	33168	32323	
876	0	32984	32330	
877	0	33084	32489	
878	0	33068	32251	
879	0	32916	32644	
880	0	32856	32151	
881	0	32862	32654	
882	0	32902	32263	
883	0	32942	32471	
884	0	32916	32375	
885	0	32932	32364	
886	0	32900	32647	
887	0	32932	32260	
888	0	32802	32404	
889	0	32872	32508	
890	0	32860	32306	
891	0	32832	32564	
892	0	32828	32163	
893	0	32784	32473	
894	0	32778	32286	
895	0	32768	32519	
896	0	32740	32315	
897	0	32780	32315	
898	0	32897	32617	
899	0	32842	32255	
900	0	32852	32446	
901	0	32788	32486	
902	0	32800	32421	
903	0	32788	32430	
904	0	32880	32324	
905	0	32798	32594	
906	0	32815	32159	
907	0	32772	32479	
908	0	32814	32284	
909	0	32798	32438	
910	0	32852	32584	
911	0	32780	32199	
912	0	32804	32607	
913	0	32775	32145	
914	0	32798	32647	
915	0	32759	32180	
916	0	32780	32620	
917	0	32800	32230	
918	0	32830	32444	
919	0	32744	32300	
920	0	32808	32391	
921	0	32802	32519	
922	0	32818	32208	
923	0	32812	32569	
924	0	32789	32234	
925	0	32834	32735	
926	0	32849	32199	
927	0	32848	32732	
928	0	32719	32191	
929	0	32737	32655	
930	0	32784	32230	
931	0	32746	32463	
932	0	32766	32303	
933	0	32742	32290	
934	0	32753	32493	
935	0	32889	32388	
936	0	32920	32613	
937	0	32780	32195	
938	0	32853	32679	
939	0	32880	32199	
940	0	32876	32386	
941	0	32884	32519	
942	0	32826	32443	
943	0	32808	32375	
944	0	32794	32439	
945	0	32812	32471	
946	0	32804	32507	
947	0	32770	32263	
948	0	32640	32551	
949	0	32697	32212	
950	0	32804	32647	
951	0	32804	32131	
952	0	32868	32647	
953	0	32833	32234	
954	0	32756	32735	
955	0	32826	32199	
956	0	32876	32597	
957	0	32864	32263	
958	0	32744	32646	
959	0	32768	32318	
960	0	32808	32326	
961	0	32775	32663	
962	0	32766	32194	
963	0	32782	32294	
964	0	32904	32678	
965	0	32806	32333	
966	0	32804	32348	
967	0	32832	32620	
968	0	32816	32175	
969	0	32809	32390	
970	0	32750	32582	
971	0	32788	32278	
972	0	32704	32182	
973	0	32826	32675	
974	0	32876	32263	
975	0	32836	32391	
976	0	32892	32542	
977	0	32872	32175	
978	0	32785	32583	
979	0	32784	32222	
980	0	32822	32607	
981	0	32822	32669	
982	0	32834	32670	
983	0	32744	32602	
984	0	32761	32582	
985	0	32718	32146	
986	0	32736	32560	
987	0	32780	32181	
988	0	32798	32687	
989	0	32788	32228	
990	0	32940	32463	
991	0	32705	32355	
992	0	32774	32279	
993	0	32828	32623	
994	0	32792	32212	
995	0	32852	32719	
996	0	32892	32327	
997	0	32812	32391	
998	0	32864	32578	
999	0	32780	32146	
1000	0	32794	32482	
1001	0	32772	32532	
1002	0	32766	32159	
1003	0	32712	32655	
1004	0	32800	32263	
1005	0	32808	32455	
1006	0	32844	32229	
1007	0	32792	32614	
1008	0	32735	32231	
1009	0	32844	32662	
1010	0	32862	32230	
1011	0	32866	32469	
1012	0	32826	32287	
1013	0	32784	32421	
1014	0	32840	32435	
1015	0	32856	32354	
1016	0	32784	32503	
1017	0	32822	32294	
1018	0	32838	32562	
1019	0	32808	32199	
1020	0	32766	32658	
1021	0	32820	32343	
1022	0	32852	32384	
1023	0	32740	32495	
1024	0	32748	32263	
1025	0	32758	32511	
1026	0	32794	32182	
1027	0	32816	32647	
1028	0	32832	32189	
1029	0	32832	32743	
1030	0	32848	32366	
1031	0	32778	32390	
1032	0	32756	32583	
1033	0	32800	32239	
1034	0	32828	32647	
1035	0	32760	32143	
1036	0	32774	32644	
1037	0	32768	32231	
1038	0	32837	32718	
1039	0	32830	32163	
1040	0	32756	32623	
1041	0	32775	32135	
1042	0	32780	32673	
1043	0	32826	32172	
1044	0	32788	32621	
1045	0	32872	32300	
1046	0	32844	32384	
1047	0	32860	32470	
1048	0	32916	32231	
1049	0	32796	32675	
1050	0	32736	32351	
1051	0	32756	32263	
1052	0	32744	32607	
1053	0	32762	32208	
1054	0	32797	32631	
1055	0	32775	32311	
1056	0	32757	32324	
1057	0	32802	32597	
1058	0	32775	32186	
1059	0	32744	32635	
1060	0	32782	32183	
1061	0	32828	32599	
1062	0	32802	32287	
1063	0	32845	32212	
1064	0	32780	32647	
1065	0	32828	32475	
1066	0	32752	32263	
1067	0	32788	32615	
1068	0	32766	32179	
1069	0	32816	32666	
1070	0	32806	32325	
1071	0	32732	32400	
1072	0	32802	32546	
1073	0	32748	32215	
1074	0	32776	32581	
1075	0	32822	32226	
1076	0	32732	32499	
1077	0	32722	32534	
1078	0	32736	32263	
1079	0	32804	32603	
1080	0	32806	32243	
1081	0	32856	32559	
1082	0	32768	32295	
1083	0	32750	32471	
1084	0	32724	32222	
1085	0	32840	32519	
1086	0	32784	32308	
1087	0	32846	32500	
1088	0	32824	32510	
1089	0	32756	32227	
1090	0	32802	32620	
1091	0	32807	32183	
1092	0	32756	32606	
1093	0	32784	32199	
1094	0	32766	32515	
1095	0	32788	32287	
1096	0	32744	32455	
1097	0	32790	32370	
1098	0	32804	32391	
1099	0	32764	32449	
1100	0	32824	32359	
1101	0	32764	32503	
1102	0	32789	32308	
1103	0	32872	32580	
1104	0	32824	32219	
1105	0	32796	32615	
1106	0	32797	32228	
1107	0	32792	32591	
1108	0	32847	32199	
1109	0	32896	32659	
1110	0	32796	32147	
1111	0	32836	32591	
1112	0	32836	32263	
1113	0	32820	32674	
1114	0	32782	32215	
1115	0	32866	32463	
1116	0	32808	32444	
1117	0	32740	32326	
1118	0	32826	32612	
1119	0	32876	32295	
1120	0	32824	32655	
1121	0	32812	32220	
1122	0	32882	32618	
1123	0	32836	32197	
1124	0	32864	32707	
1125	0	32863	32391	
1126	0	32768	32203	
1127	0	32850	32606	
1128	0	32804	32351	
1129	0	32830	32325	
1130	0	32812	32612	
1131	0	32836	32227	
1132	0	32776	32519	
1133	0	32774	32639	
1134	0	32730	32175	
1135	0	32758	32434	
1136	0	32792	32455	
1137	0	32796	32167	
1138	0	32766	32439	
1139	0	32775	32602	
1140	0	32780	32212	
1141	0	32788	32367	
1142	0	32808	32586	
1143	0	32802	32279	
1144	0	32764	32503	
1145	0	32800	32336	
1146	0	32742	32319	
1147	0	32775	32586	
1148	0	32796	32263	
1149	0	32820	32423	
1150	0	32768	32558	
1151	0	32822	32177	
1152	0	32804	32671	
1153	0	32780	32246	
1154	0	32780	32438	
1155	0	32834	32452	
1156	0	32796	32327	
1157	0	32712	32629	
1158	0	32816	32202	
1159	0	32823	32439	
1160	0	32842	32603	
1161	0	32806	32353	
1162	0	32830	32221	
1163	0	32832	32298	
1164	0	32840	32554	
1165	0	32852	32639	
1166	0	32828	32367	
1167	0	32812	32230	
1168	0	32750	32447	
1169	0	32751	32519	
1170	0	32708	32231	
1171	0	32832	32679	
1172	0	32748	32362	
1173	0	32865	32218	
1174	0	32846	32574	
1175	0	32784	32555	
1176	0	32764	32596	
1177	0	32783	32374	
1178	0	32748	32358	
1179	0	32880	32263	
1180	0	32764	32263	
1181	0	32832	32174	
1182	0	32888	32263	
1183	0	32772	32287	
1184	0	32826	32444	
1185	0	32804	32655	
1186	0	32772	32166	
1187	0	32784	32604	
1188	0	32814	32283	
1189	0	32772	32364	
1190	0	32794	32527	
1191	0	32840	32294	
1192	0	32892	32685	
1193	0	32764	32143	
1194	0	32830	32519	
1195	0	32796	32487	
1196	0	32816	32260	
1197	0	32756	32666	
1198	0	32864	32214	
1199	0	32766	32647	
1200	0	32782	32193	
1201	0	32716	32443	
1202	0	32761	32263	
1203	0	32868	32429	
1204	0	32889	32519	
1205	0	32750	32358	
1206	0	32752	32356	
1207	0	32776	32359	
1208	0	32848	32325	
1209	0	32817	32238	
1210	0	32782	32143	
1211	0	32714	32298	
1212	0	32828	32587	
1213	0	32850	32563	
1214	0	32868	32215	
1215	0	32790	32492	
1216	0	32780	32487	
1217	0	32762	32243	
1218	0	32866	32543	
1219	0	32792	32606	
1220	0	32764	32234	
1221	0	32873	32254	
1222	0	32824	32355	
1223	0	32810	32631	
1224	0	32885	32551	
1225	0	32844	32263	
1226	0	32850	32351	
1227	0	32764	32684	
1228	0	32748	32465	
1229	0	32812	32184	
1230	0	32724	32391	
1231	0	32820	32675	
1232	0	32808	32623	
1233	0	32844	32332	
1234	0	32800	32197	
1235	0	32742	32230	
1236	0	32836	32458	
1237	0	32768	32655	
1238	0	32816	32351	
1239	0	32844	32158	
1240	0	32756	32372	
1241	0	32724	32559	
1242	0	32865	32263	
1243	0	32868	32429	
1244	0	32807	32623	
1245	0	32760	32245	
1246	0	32804	32366	
1247	0	32748	32671	
1248	0	32788	32383	
1249	0	32806	32183	
1250	0	32886	32462	
1251	0	32769	32559	
1252	0	32790	32263	
1253	0	32736	32399	
1254	0	32804	32654	
1255	0	32820	32374	
1256	0	32826	32255	
1257	0	32822	32383	
1258	0	32808	32645	
1259	0	32764	32542	
1260	0	32798	32359	
1261	0	32790	32214	
1262	0	32804	32453	
1263	0	32836	32646	
1264	0	32824	32487	
1265	0	32788	32375	
1266	0	32860	32230	
1267	0	32878	32255	
1268	0	32832	32219	
1269	0	32836	32431	
1270	0	32826	32572	
1271	0	32770	32159	
1272	0	32740	32439	
1273	0	32808	32585	
1274	0	32772	32111	
1275	0	32788	32391	
1276	0	32745	32583	
1277	0	32708	32218	
1278	0	32744	32494	
1279	0	32816	32470	
1280	0	32740	32179	
1281	0	32768	32636	
1282	0	32842	32225	
1283	0	32792	32487	
1284	0	32820	32503	
1285	0	32836	32252	
1286	0	32831	32372	
1287	0	32796	32655	
1288	0	32780	32199	
1289	0	32798	32382	
1290	0	32740	32538	
1291	0	32738	32190	
1292	0	32770	32535	
1293	0	32688	32519	
1294	0	32749	32230	
1295	0	32728	32674	
1296	0	32744	32254	
1297	0	32752	32405	
1298	0	32784	32567	
1299	0	32860	32351	
1300	0	32898	32550	
1301	0	32940	32359	
1302	0	32868	32615	
1303	0	32900	32239	
1304	0	32838	32551	
1305	0	32832	32175	
1306	0	32692	32671	
1307	0	32644	32260	
1308	0	32552	32436	
1309	0	32532	32468	
1310	0	32568	32239	
1311	0	32576	32570	
1312	0	32580	32183	
1313	0	32526	32564	
1314	0	32668	32223	
1315	0	32706	32596	
1316	0	32764	32247	
1317	0	32785	32730	
1318	0	32742	32202	
1319	0	32775	32655	
1320	0	32868	32188	
1321	0	32932	32674	
1322	0	32872	32239	
1323	0	32980	32529	
1324	0	33064	32318	
1325	0	32976	32519	
1326	0	32948	32243	
1327	0	32936	32451	
1328	0	32944	32390	
1329	0	33074	32623	
1330	0	33122	32300	
1331	0	33072	32514	
1332	0	33130	32431	
1333	0	33016	32403	
1334	0	32909	32372	
1335	0	32880	32519	
1336	0	32786	32222	
1337	0	32716	32158	
1338	0	32774	32213	
1339	0	32868	32342	
1340	0	32927	32370	
1341	0	32836	32452	
1342	0	32752	32487	
1343	0	32786	32591	
1344	0	32800	32606	
1345	0	32826	32294	
1346	0	32906	32519	
1347	0	32908	32295	
1348	0	32804	32506	
1349	0	32872	32292	
1350	0	32750	32426	
1351	0	32718	32618	
1352	0	32800	32203	
1353	0	32822	32598	
1354	0	32740	32203	
1355	0	32716	32611	
1356	0	32752	32319	
1357	0	32764	32347	
1358	0	32712	32643	
1359	0	32688	32220	
1360	0	32716	32447	
1361	0	32604	32358	
1362	0	32664	32239	
1363	0	32676	32631	
1364	0	32728	32220	
1365	0	32664	32466	
1366	0	32782	32367	
1367	0	32820	32387	
1368	0	32728	32462	
1369	0	32784	32449	
1370	0	32806	32343	
1371	0	32796	32498	
1372	0	32820	32357	
1373	0	32847	32367	
1374	0	32844	32501	
1375	0	32774	32319	
1376	0	32932	32540	
1377	0	32900	32144	
1378	0	33004	32150	
1379	0	33008	32301	
1380	0	32989	32263	
1381	0	32860	32398	
1382	0	32873	32454	
1383	0	32799	32559	
1384	0	32790	32701	
1385	0	32792	32653	
1386	0	32748	32709	
1387	0	32785	32582	
1388	0	32828	32367	
1389	0	32854	32312	
1390	0	32788	32251	
1391	0	32812	32147	
1392	0	32780	32379	
1393	0	32724	32514	
1394	0	32692	32571	
1395	0	32630	32654	
1396	0	32764	32660	
1397	0	32776	32630	
1398	0	32812	32246	
1399	0	32812	32510	
1400	0	32744	32335	
1401	0	32804	32484	
1402	0	32784	32495	
1403	0	32784	32255	
1404	0	32642	32591	
1405	0	32728	32198	
1406	0	32824	32626	
1407	0	32802	32197	
1408	0	32772	32615	
1409	0	32776	32190	
1410	0	32796	32661	
1411	0	32804	32291	
1412	0	32828	32519	
1413	0	32808	32377	
1414	0	32784	32471	
1415	0	32722	32225	
1416	0	32716	32362	
1417	0	32578	32396	
1418	0	32638	32505	
1419	0	32614	32647	
1420	0	32668	32647	
1421	0	32542	32567	
1422	0	32608	32591	
1423	0	32622	32462	
1424	0	32470	32559	
1425	0	32484	32626	
1426	0	32450	32567	
1427	0	32452	32311	
1428	0	32646	32455	
1429	0	32640	32199	
1430	0	32484	32675	
1431	0	32468	32170	
1432	0	32372	32663	
1433	0	32308	32257	
1434	0	32334	32380	
1435	0	32606	32368	
1436	0	32624	32327	
1437	0	32846	32527	
1438	0	32876	32236	
1439	0	32935	32652	
1440	0	33124	32263	
1441	0	33328	32404	
1442	0	33520	32427	
1443	0	33712	32351	
1444	0	33892	32593	
1445	0	33830	32319	
1446	0	33572	32378	
1447	0	33332	32282	
1448	0	33000	32620	
1449	0	32988	32223	
1450	0	33060	32508	
1451	0	33484	32438	
1452	0	33436	32199	
1453	0	33272	32703	
1454	0	33206	32316	
1455	0	33384	32263	
1456	0	33300	32718	
1457	0	33212	32110	
1458	0	33340	32298	
1459	0	33596	32199	
1460	0	33804	32492	
1461	0	34242	32507	
1462	0	34280	32234	
1463	0	34180	32639	
1464	0	33774	32303	
1465	0	33272	32263	
1466	0	32728	32641	
1467	0	32346	32302	
1468	0	32072	32361	
1469	0	31776	32608	
1470	0	31488	32228	
1471	0	31311	32550	
1472	0	31316	32199	
1473	0	31284	32487	
1474	0	31300	32326	
1475	0	31200	32332	
1476	0	31176	32423	
1477	0	31524	32346	
1478	0	31740	32463	
1479	0	31962	32378	
1480	0	32224	32390	
1481	0	32298	32354	
1482	0	32292	32530	
1483	0	32486	32195	
1484	0	32628	32567	
1485	0	32821	32490	
1486	0	32917	32483	
1487	0	33136	32166	
1488	0	33218	32674	
1489	0	33182	32391	
1490	0	33300	32356	
1491	0	33224	32383	
1492	0	33236	32215	
1493	0	33190	32662	
1494	0	33052	32235	
1495	0	33088	32647	
1496	0	33096	32175	
1497	0	33122	32604	
1498	0	32946	32211	
1499	0	32934	32551	
1500	0	32908	32338	
1501	0	32917	32367	
1502	0	32828	32495	
1503	0	32804	32337	
1504	0	32821	32610	
1505	0	32758	32183	
1506	0	32814	32679	
1507	0	32812	32222	
1508	0	32836	32444	
1509	0	32850	32516	
1510	0	32897	32207	
1511	0	32812	32659	
1512	0	32730	32224	
1513	0	32756	32418	
1514	0	32769	32306	
1515	0	32897	32247	
1516	0	32960	32315	
1517	0	32764	32443	
1518	0	32820	32482	
1519	0	32846	32355	
1520	0	32790	32543	
1521	0	32804	32191	
1522	0	32762	32598	
1523	0	32794	32193	
1524	0	32736	32684	
1525	0	32704	32335	
1526	0	32736	32478	
1527	0	32783	32412	
1528	0	32849	32397	
1529	0	32868	32590	
1530	0	32848	32239	
1531	0	32880	32695	
1532	0	32802	32327	
1533	0	32798	32359	
1534	0	32816	32551	
1535	0	32836	32222	
1536	0	32884	32698	
1537	0	32856	32220	
1538	0	32772	32359	
1539	0	32932	32543	
1540	0	32828	32224	
1541	0	32784	32461	
1542	0	32788	32180	
1543	0	32697	32654	
1544	0	32750	32161	
1545	0	32720	32614	
1546	0	32782	32238	
1547	0	32762	32620	
1548	0	32745	32190	
1549	0	32832	32462	
1550	0	32856	32201	
1551	0	32788	32671	
1552	0	32824	32250	
1553	0	32852	32616	
1554	0	32836	32231	
1555	0	32752	32630	
1556	0	32844	32287	
1557	0	32874	32687	
1558	0	32852	32260	
1559	0	32878	32637	
1560	0	32840	32198	
1561	0	32878	32660	
1562	0	32776	32220	
1563	0	32852	32647	
1564	0	32808	32181	
1565	0	32746	32655	
1566	0	32756	32199	
1567	0	32784	32695	
1568	0	32826	32188	
1569	0	32716	32554	
1570	0	32718	32198	
1571	0	32756	32490	
1572	0	32908	32390	
1573	0	32752	32375	
1574	0	32744	32402	
1575	0	32848	32469	
1576	0	32796	32354	
1577	0	32705	32463	
1578	0	32840	32281	
1579	0	32748	32660	
1580	0	32736	32223	
1581	0	32841	32357	
1582	0	32748	32606	
1583	0	32804	32207	
1584	0	32722	32431	
1585	0	32800	32447	
1586	0	32842	32263	
1587	0	32840	32631	
1588	0	32864	32229	
1589	0	32832	32624	
1590	0	32782	32332	
1591	0	32908	32347	
1592	0	32872	32644	
1593	0	32758	32183	
1594	0	32750	32527	
1595	0	32806	32479	
1596	0	32794	32231	
1597	0	32749	32621	
1598	0	32792	32391	
1599	0	32804	32257	
1600	0	32812	32690	
1601	0	32844	32303	
1602	0	32740	32218	
1603	0	32844	32428	
1604	0	32750	32551	
1605	0	32774	32151	
1606	0	32794	32437	
1607	0	32772	32599	
1608	0	32714	32235	
1609	0	32804	32373	
1610	0	32776	32723	
1611	0	32794	32308	
1612	0	32812	32263	
1613	0	32812	32645	
1614	0	32844	32209	
1615	0	32820	32434	
1616	0	32808	32530	
1617	0	32740	32387	
1618	0	32796	32223	
1619	0	32802	32293	
1620	0	32808	32258	
1621	0	32734	32287	
1622	0	32823	32220	
1623	0	32820	32167	
1624	0	32920	32252	
1625	0	32808	32342	
1626	0	32852	32206	
1627	0	32800	32295	
1628	0	32728	32223	
1629	0	32774	32391	
1630	0	32818	32446	
1631	0	32780	32543	
1632	0	32774	32417	
1633	0	32823	32380	
1634	0	32772	32324	
1635	0	32742	32212	
1636	0	32816	32263	
1637	0	32872	32183	
1638	0	32834	32229	
1639	0	32912	32251	
1640	0	32852	32359	
1641	0	32775	32503	
1642	0	32804	32556	
1643	0	32885	32591	
1644	0	32740	32511	
1645	0	32812	32557	
1646	0	32906	32415	
1647	0	32756	32339	
1648	0	32752	32563	
1649	0	32800	32227	
1650	0	32780	32556	
1651	0	32826	32260	
1652	0	32856	32628	
1653	0	32892	32215	
1654	0	32930	32247	
1655	0	32806	32244	
1656	0	32792	32249	
1657	0	32716	32324	
1658	0	32774	32327	
1659	0	32740	32420	
1660	0	32775	32450	
1661	0	32756	32614	
1662	0	32648	32475	
1663	0	32740	32643	
1664	0	32700	32583	
1665	0	32676	32571	
1666	0	32820	32510	
1667	0	32834	32477	
1668	0	32782	32355	
1669	0	32836	32263	
1670	0	32804	32331	
1671	0	32799	32315	
1672	0	32704	32391	
1673	0	32844	32350	
1674	0	32812	32300	
1675	0	32868	32375	
1676	0	32804	32551	
1677	0	32780	32559	
1678	0	32740	32606	
1679	0	32781	32615	
1680	0	32830	32614	
1681	0	32792	32519	
1682	0	32824	32183	
1683	0	32788	32620	
1684	0	32822	32406	
1685	0	32792	32353	
1686	0	32772	32548	
1687	0	32836	32285	
1688	0	32800	32665	
1689	0	32750	32228	
1690	0	32696	32348	
1691	0	32716	32495	
1692	0	32740	32247	
1693	0	32834	32678	
1694	0	32752	32223	
1695	0	32750	32690	
1696	0	32772	32180	
1697	0	32716	32423	
1698	0	32764	32171	
1699	0	32852	32631	
1700	0	32791	32247	
1701	0	32760	32574	
1702	0	32772	32314	
1703	0	32742	32668	
1704	0	32792	32666	
1705	0	32732	32679	
1706	0	32870	32663	
1707	0	32828	32611	
1708	0	32818	32647	
1709	0	32732	32567	
1710	0	32784	32287	
1711	0	32728	32583	
1712	0	32774	32227	
1713	0	32740	32582	
1714	0	32764	32199	
1715	0	32812	32518	
1716	0	32834	32556	
1717	0	32820	32231	
1718	0	32876	32517	
1719	0	32857	32647	
1720	0	32780	32599	
1721	0	32804	32671	
1722	0	32822	32589	
1723	0	32916	32644	
1724	0	32856	32602	
1725	0	32784	32588	
1726	0	32828	32558	
1727	0	32786	32302	
1728	0	32836	32548	
1729	0	32789	32206	
1730	0	32830	32607	
1731	0	32826	32258	
1732	0	32761	32647	
1733	0	32808	32519	
1734	0	32852	32567	
1735	0	32830	32422	
1736	0	32840	32245	
1737	0	32856	32219	
1738	0	32834	32222	
1739	0	32840	32188	
1740	0	32896	32204	
1741	0	32852	32179	
1742	0	32754	32303	
1743	0	32898	32350	
1744	0	32836	32327	
1745	0	32848	32481	
1746	0	32782	32679	
1747	0	32760	32748	
1748	0	32812	32615	
1749	0	32814	32633	
1750	0	32880	32597	
1751	0	32796	32582	
1752	0	32784	32519	
1753	0	32814	32388	
1754	0	32824	32176	
1755	0	32852	32135	
1756	0	32794	32251	
1757	0	32727	32310	
1758	0	32784	32458	
1759	0	32780	32583	
1760	0	32836	32687	
1761	0	32740	32551	
1762	0	32832	32406	
1763	0	32828	32228	
1764	0	32816	32679	
1765	0	32844	32323	
1766	0	32712	32366	
1767	0	32816	32626	
1768	0	32821	32202	
1769	0	32838	32708	
1770	0	32884	32199	
1771	0	32868	32519	
1772	0	32826	32407	
1773	0	32817	32359	
1774	0	32764	32484	
1775	0	32736	32391	
1776	0	32834	32412	
1777	0	32840	32380	
1778	0	32794	32363	
1779	0	32832	32475	
1780	0	32754	32252	
1781	0	32818	32510	
1782	0	32908	32279	
1783	0	32900	32710	
1784	0	32772	32197	
1785	0	32772	32438	
1786	0	32780	32428	
1787	0	32824	32331	
1788	0	32712	32308	
1789	0	32756	32375	
1790	0	32718	32197	
1791	0	32784	32612	
1792	0	32790	32188	
1793	0	32792	32455	
1794	0	32774	32283	
1795	0	32756	32427	
1796	0	32862	32511	
1797	0	32838	32206	
1798	0	32800	32655	
1799	0	32764	32351	
1800	0	32832	32239	
1801	0	32719	32570	
1802	0	32900	32327	
1803	0	32906	32407	
1804	0	32800	32607	
1805	0	32844	32243	
1806	0	32798	32500	
1807	0	32832	32542	
1808	0	32800	32311	
1809	0	32788	32602	
1810	0	32724	32192	
1811	0	32720	32590	
1812	0	32740	32292	
1813	0	32836	32303	
1814	0	32756	32325	
1815	0	32753	32295	
1816	0	32775	32610	
1817	0	32748	32287	
1818	0	32728	32404	
1819	0	32820	32599	
1820	0	32868	32239	
1821	0	32828	32474	
1822	0	32836	32594	
1823	0	32796	32194	
1824	0	32840	32301	
1825	0	32864	32600	
1826	0	32828	32424	
1827	0	32774	32198	
1828	0	32774	32433	
1829	0	32744	32559	
1830	0	32746	32180	
1831	0	32836	32470	
1832	0	32847	32438	
1833	0	32812	32322	
1834	0	32764	32555	
1835	0	32804	32148	
1836	0	32756	32679	
1837	0	32768	32135	
1838	0	32749	32699	
1839	0	32864	32293	
1840	0	32828	32449	
1841	0	32714	32439	
1842	0	32842	32423	
1843	0	32812	32401	
1844	0	32792	32381	
1845	0	32802	32418	
1846	0	32834	32309	
1847	0	32746	32519	
1848	0	32752	32311	
1849	0	32782	32576	
1850	0	32816	32263	
1851	0	32832	32623	
1852	0	32832	32207	
1853	0	32852	32463	
1854	0	32842	32583	
1855	0	32768	32183	
1856	0	32760	32375	
1857	0	32729	32622	
1858	0	32762	32263	
1859	0	32806	32346	
1860	0	32832	32686	
1861	0	32808	32404	
1862	0	32876	32311	
1863	0	32796	32657	
1864	0	32816	32246	
1865	0	32736	32467	
1866	0	32792	32500	
1867	0	32784	32213	
1868	0	32799	32711	
1869	0	32808	32502	
1870	0	32836	32219	
1871	0	32853	32628	
1872	0	32822	32279	
1873	0	32768	32671	
1874	0	32750	32263	
1875	0	32760	32316	
1876	0	32804	32671	
1877	0	32792	32431	
1878	0	32876	32286	
1879	0	32778	32628	
1880	0	32772	32143	
1881	0	32776	32439	
1882	0	32814	32606	
1883	0	32788	32184	
1884	0	32790	32644	
1885	0	32800	32242	
1886	0	32812	32471	
1887	0	32884	32575	
1888	0	32784	32227	
1889	0	32718	32475	
1890	0	32730	32541	
1891	0	32684	32199	
1892	0	32745	32643	
1893	0	32652	32230	
1894	0	32648	32379	
1895	0	32730	32666	
1896	0	32780	32287	
1897	0	32772	32443	
1898	0	32730	32607	
1899	0	32712	32173	
1900	0	32760	32263	
1901	0	32852	32656	
1902	0	32884	32302	
1903	0	32910	32444	
1904	0	32766	32263	
1905	0	32833	32372	
1906	0	32824	32550	
1907	0	32772	32194	
1908	0	32764	32661	
1909	0	32660	32287	
1910	0	32654	32462	
1911	0	32672	32215	
1912	0	32780	32655	
1913	0	32668	32237	
1914	0	32685	32503	
1915	0	32732	32292	
1916	0	32728	32303	
1917	0	32820	32372	
1918	0	32706	32443	
1919	0	32744	32327	
1920	0	32836	32390	
1921	0	32794	32503	
1922	0	32724	32263	
1923	0	32804	32518	
1924	0	32772	32226	
1925	0	32848	32643	
1926	0	33016	32282	
1927	0	33068	32494	
1928	0	33086	32554	
1929	0	32932	32251	
1930	0	32988	32519	
1931	0	33024	32547	
1932	0	33042	32292	
1933	0	33056	32674	
1934	0	32982	32188	
1935	0	32924	32476	
1936	0	32909	32547	
1937	0	32780	32230	
1938	0	32820	32465	
1939	0	32756	32547	
1940	0	32768	32167	
1941	0	32776	32665	
1942	0	32832	32367	
1943	0	32904	32226	
1944	0	32880	32607	
1945	0	32952	32551	
1946	0	32952	32223	
1947	0	32932	32387	
1948	0	32924	32615	
1949	0	32920	32406	
1950	0	32808	32423	
1951	0	32812	32556	
1952	0	32768	32166	
1953	0	32697	32615	
1954	0	32637	32143	
1955	0	32647	32654	
1956	0	32644	32358	
1957	0	32788	32404	
1958	0	32742	32583	
1959	0	32692	32204	
1960	0	32744	32622	
1961	0	32774	32294	
1962	0	32752	32277	
1963	0	32640	32663	
1964	0	32720	32476	
1965	0	32876	32236	
1966	0	32856	32647	
1967	0	32782	32426	
1968	0	32756	32135	
1969	0	32759	32423	
1970	0	32794	32582	
1971	0	32756	32181	
1972	0	32804	32419	
1973	0	32748	32660	
1974	0	32744	32260	
1975	0	32744	32225	
1976	0	32865	32670	
1977	0	32868	32502	
1978	0	32916	32194	
1979	0	32894	32207	
1980	0	32888	32669	
1981	0	32932	32380	
1982	0	32870	32250	
1983	0	32860	32562	
1984	0	32908	32279	
1985	0	32934	32227	
1986	0	32848	32466	
1987	0	32840	32631	
1988	0	32838	32476	
1989	0	32784	32243	
1990	0	32780	32439	
1991	0	32836	32652	
1992	0	32732	32255	
1993	0	32689	32327	
1994	0	32758	32551	
1995	0	32702	32190	
1996	0	32756	32647	
1997	0	32704	32390	
1998	0	32684	32181	
1999	0	32750	32404	
2000	0	32776	32604	
2001	0	32834	32223	
2002	0	32794	32256	
2003	0	32754	32461	
2004	0	32654	32572	
2005	0	32774	32122	
2006	0	32716	32367	
2007	0	32790	32622	
2008	0	32724	32263	
2009	0	32896	32386	
2010	0	32852	32592	
2011	0	32755	32263	
2012	0	32744	32531	
2013	0	32756	32227	
2014	0	32768	32362	
2015	0	32754	32512	
2016	0	32828	32247	
2017	0	32796	32612	
2018	0	32812	32223	
2019	0	32700	32489	
2020	0	32704	32503	
2021	0	32582	32163	
2022	0	32644	32607	
2023	0	32610	32220	
2024	0	32728	32303	
2025	0	32724	32659	
2026	0	32612	32457	
2027	0	32581	32245	
2028	0	32443	32569	
2029	0	32320	32203	
2030	0	32424	32694	
2031	0	32508	32135	
2032	0	32578	32596	
2033	0	32558	32215	
2034	0	32336	32566	
2035	0	32292	32248	
2036	0	32270	32583	
2037	0	32352	32236	
2038	0	32526	32643	
2039	0	32642	32151	
2040	0	32644	32635	
2041	0	32844	32263	
2042	0	32844	32732	
2043	0	32940	32191	
2044	0	33237	32618	
2045	0	33394	32231	
2046	0	33542	32430	
2047	0	33782	32538	
2048	0	33888	32231	
2049	0	33668	32354	
2050	0	33388	32455	
2051	0	33046	32186	
2052	0	33004	32463	
2053	0	33090	32431	
2054	0	33336	32323	
2055	0	33598	32486	
2056	0	33306	32188	
2057	0	33260	32607	
2058	0	33396	32657	
2059	0	33334	32706	
2060	0	33204	32549	
2061	0	33332	32308	
2062	0	33664	32212	
2063	0	33834	32247	
2064	0	34128	32519	
2065	0	34334	32679	
2066	0	34230	32655	
2067	0	33844	32518	
2068	0	33568	32423	
2069	0	33102	32279	
2070	0	32468	32290	
2071	0	32236	32359	
2072	0	31911	32588	
2073	0	31503	32130	
2074	0	31346	32702	
2075	0	31220	32161	
2076	0	31296	32475	
2077	0	31240	32250	
2078	0	31138	32467	
2079	0	31196	32175	
2080	0	31412	32551	
2081	0	31492	32230	
2082	0	31812	32615	
2083	0	32022	32134	
2084	0	32212	32599	
2085	0	32346	32263	
2086	0	32464	32490	
2087	0	32656	32544	
2088	0	32776	32239	
2089	0	32868	32424	
2090	0	33076	32519	
2091	0	33186	32222	
2092	0	33192	32684	
2093	0	33210	32087	
2094	0	33284	32455	
2095	0	33248	32367	
2096	0	33140	32309	
2097	0	33130	32573	
2098	0	33132	32250	
2099	0	33024	32670	
2100	0	32944	32278	
2101	0	33052	32455	
2102	0	33000	32334	
2103	0	32900	32372	
2104	0	32838	32623	
2105	0	32910	32711	
2106	0	32844	32583	
2107	0	32902	32647	
2108	0	32868	32662	
2109	0	32894	32668	
2110	0	32876	32631	
2111	0	32800	32550	
2112	0	32776	32405	
2113	0	32816	32436	
2114	0	32790	32502	
2115	0	32806	32543	
2116	0	32836	32428	
2117	0	32880	32723	
2118	0	32796	32634	
2119	0	32808	32587	
2120	0	32838	32418	
2121	0	32854	32177	
2122	0	32774	32164	
2123	0	32780	32167	
2124	0	32728	32255	
2125	0	32798	32262	
2126	0	32904	32351	
2127	0	32762	32351	
2128	0	32826	32418	
2129	0	32768	32375	
2130	0	32764	32643	
2131	0	32852	32163	
2132	0	32720	32575	
2133	0	32796	32455	
2134	0	32769	32295	
2135	0	32814	32391	
2136	0	32848	32421	
2137	0	32780	32323	
2138	0	32772	32503	
2139	0	32842	32375	
2140	0	32790	32562	
2141	0	32730	32300	
2142	0	32876	32428	
2143	0	32856	32435	
2144	0	32814	32543	
2145	0	32764	32356	
2146	0	32840	32439	
2147	0	32778	32367	
2148	0	32858	32383	
2149	0	32832	32443	
2150	0	32808	32303	
2151	0	32792	32407	
2152	0	32816	32311	
2153	0	32812	32431	
2154	0	32796	32332	
2155	0	32748	32414	
2156	0	32721	32196	
2157	0	32838	32443	
2158	0	32780	32359	
2159	0	32788	32399	
2160	0	32833	32263	
2161	0	32784	32359	
2162	0	32782	32577	
2163	0	32788	32340	
2164	0	32844	32755	
2165	0	32820	32211	
2166	0	32824	32452	
2167	0	32908	32519	
2168	0	32744	32196	
2169	0	32834	32662	
2170	0	32853	32263	
2171	0	32824	32504	
2172	0	32752	32443	
2173	0	32832	32231	
2174	0	32818	32607	
2175	0	32724	32159	
2176	0	32774	32655	
2177	0	32840	32263	
2178	0	32804	32630	
2179	0	32844	32333	
2180	0	32824	32404	
2181	0	32805	32391	
2182	0	32872	32218	
2183	0	32740	32230	
2184	0	32780	32359	
2185	0	32794	32430	
2186	0	32810	32490	
2187	0	32858	32647	
2188	0	32836	32675	
2189	0	32820	32727	
2190	0	32870	32639	
2191	0	32752	32247	
2192	0	32756	32567	
2193	0	32738	32093	
2194	0	32766	32646	
2195	0	32736	32116	
2196	0	32810	32583	
2197	0	32798	32148	
2198	0	32820	32594	
2199	0	32842	32276	
2200	0	32790	32686	
2201	0	32784	32263	
2202	0	32782	32436	
2203	0	32912	32626	
2204	0	32864	32282	
2205	0	32839	32519	
2206	0	32852	32327	
2207	0	32757	32382	
2208	0	32798	32261	
2209	0	32764	32271	
2210	0	32728	32519	
2211	0	32748	32159	
2212	0	32810	32379	
2213	0	32836	32404	
2214	0	32864	32255	
2215	0	32772	32703	
2216	0	32752	32174	
2217	0	32852	32483	
2218	0	32788	32566	
2219	0	32740	32191	
2220	0	32890	32546	
2221	0	32860	32655	
2222	0	32792	32323	
2223	0	32904	32757	
2224	0	32864	32250	
2225	0	32830	32490	
2226	0	32836	32495	
2227	0	32780	32350	
2228	0	32828	32623	
2229	0	32814	32263	
2230	0	32778	32423	
2231	0	32696	32311	
2232	0	32760	32259	
2233	0	32828	32583	
2234	0	32862	32135	
2235	0	32784	32321	
2236	0	32852	32612	
2237	0	32832	32227	
2238	0	32840	32711	
2239	0	32896	32231	
2240	0	32892	32510	
2241	0	32740	32263	
2242	0	32820	32547	
2243	0	32756	32391	
2244	0	32846	32362	
2245	0	32740	32643	
2246	0	32832	32263	
2247	0	32856	32399	
2248	0	32794	32309	
2249	0	32816	32351	
2250	0	32821	32524	
2251	0	32846	32251	
2252	0	32836	32695	
2253	0	32816	32263	
2254	0	32924	32455	
2255	0	32765	32391	
2256	0	32640	32186	
2257	0	32716	32633	
2258	0	32790	32469	
2259	0	32673	32089	
2260	0	32688	32327	
2261	0	32736	32533	
2262	0	32716	32327	
2263	0	32780	32124	
2264	0	32797	32310	
2265	0	32810	32710	
2266	0	32920	32335	
2267	0	32910	32263	
2268	0	32828	32643	
2269	0	32828	32511	
2270	0	32850	32218	
2271	0	32884	32465	
2272	0	32740	32671	
2273	0	32721	32295	
2274	0	32768	32323	
2275	0	32806	32727	
2276	0	32980	32415	
2277	0	32942	32486	
2278	0	32854	32852	
2279	0	32804	32423	
2280	0	32719	32351	
2281	0	32740	32594	
2282	0	32578	32187	
2283	0	32636	32575	
2284	0	32736	32183	
2285	0	32732	32389	
2286	0	32640	32306	
2287	0	32700	32180	
2288	0	32676	32463	
2289	0	32760	32133	
2290	0	32784	32626	
2291	0	32800	32123	
2292	0	32853	32571	
2293	0	32872	32407	
2294	0	32890	32172	
2295	0	32892	32642	
2296	0	32876	32364	
2297	0	32838	32482	
2298	0	32828	32499	
2299	0	32822	32447	
2300	0	32804	32823	
2301	0	32913	32452	
2302	0	32920	32860	
2303	0	32790	32317	
2304	0	32750	32698	
2305	0	32752	32200	
2306	0	32652	32671	
2307	0	32706	32090	
2308	0	32704	32375	
2309	0	32624	31919	
2310	0	32546	32322	
2311	0	32820	32022	
2312	0	32956	32487	
2313	0	32868	32852	
2314	0	32789	32383	
2315	0	32856	32415	
2316	0	32838	32674	
2317	0	32780	32286	
2318	0	32688	32254	
2319	0	32560	32559	
2320	0	32648	32103	
2321	0	32688	32311	
2322	0	32673	32742	
2323	0	32746	32447	
2324	0	32888	32337	
2325	0	32864	32503	
2326	0	32834	32511	
2327	0	32837	32212	
2328	0	32846	32642	
2329	0	32768	32039	
2330	0	32676	32447	
2331	0	32676	32052	
2332	0	32820	32666	
2333	0	32842	32128	
2334	0	32948	32631	
2335	0	32836	32187	
2336	0	32876	32631	
2337	0	32938	32252	
2338	0	32956	32761	
2339	0	32882	32600	
2340	0	32887	32647	
2341	0	32880	32567	
2342	0	32932	32551	
2343	0	32876	32390	
2344	0	32889	32775	
2345	0	32852	32404	
2346	0	32884	32550	
2347	0	32840	32423	
2348	0	32872	32519	
2349	0	32804	32455	
2350	0	32868	32327	
2351	0	32748	32263	
2352	0	32850	32195	
2353	0	32708	32332	
2354	0	32812	32484	
2355	0	32751	32119	
2356	0	32800	32383	
2357	0	32837	32519	
2358	0	32752	32191	
2359	0	32644	32351	
2360	0	32708	32581	
2361	0	32716	32285	
2362	0	32652	32303	
2363	0	32586	32532	
2364	0	32848	32238	
2365	0	32858	32347	
2366	0	32905	32751	
2367	0	32890	32428	
2368	0	32898	32503	
2369	0	32880	32758	
2370	0	32992	32328	
2371	0	32944	32506	
2372	0	32932	32559	
2373	0	32806	32279	
2374	0	32756	32487	
2375	0	32656	32186	
2376	0	32610	32412	
2377	0	32750	32383	
2378	0	32820	32542	
2379	0	32768	32479	
2380	0	32849	32287	
2381	0	32804	32465	
2382	0	32834	32535	
2383	0	32768	32234	
2384	0	32724	32295	
2385	0	32692	32196	
2386	0	32684	32200	
2387	0	32640	32135	
2388	0	32696	32186	
2389	0	32848	32389	
2390	0	32834	32247	
2391	0	32714	32286	
2392	0	32896	32534	
2393	0	32980	32444	
2394	0	32982	32629	
2395	0	32966	32519	
2396	0	32840	32636	
2397	0	32852	32461	
2398	0	32872	32659	
2399	0	32812	32423	
2400	0	32980	32487	
2401	0	32876	32503	
2402	0	32792	32407	
2403	0	32756	32515	
2404	0	32668	32322	
2405	0	32801	32471	
2406	0	32836	32285	
2407	0	32688	32501	
2408	0	32760	32262	
2409	0	32752	32479	
2410	0	32796	32204	
2411	0	32752	32678	
2412	0	32734	32255	
2413	0	32846	32639	
2414	0	32814	32257	
2415	0	32824	32366	
2416	0	32736	32455	
2417	0	32816	32116	
2418	0	32884	32564	
2419	0	32870	32092	
2420	0	32836	32263	
2421	0	32780	32346	
2422	0	32524	31979	
2423	0	32500	32483	
2424	0	32640	32399	
2425	0	32760	32187	
2426	0	32924	32539	
2427	0	32878	32428	
2428	0	32814	32568	
2429	0	32852	32519	
2430	0	32921	32467	
2431	0	32840	32694	
2432	0	32724	32364	
2433	0	32738	32596	
2434	0	32790	32251	
2435	0	32708	32471	
2436	0	32648	32391	
2437	0	32808	32197	
2438	0	32868	32619	
2439	0	32896	32247	
2440	0	32904	32379	
2441	0	32952	32733	
2442	0	32824	32388	
2443	0	32722	32394	
2444	0	32872	32604	
2445	0	32878	32253	
2446	0	32960	32519	
2447	0	32848	32671	
2448	0	32791	32206	
2449	0	32816	32533	
2450	0	32954	32599	
2451	0	32940	32359	
2452	0	32958	32759	
2453	0	32764	32207	
2454	0	32775	32588	
2455	0	32580	32066	
2456	0	32616	32353	
2457	0	32634	32183	
2458	0	32528	31970	
2459	0	32644	32325	
2460	0	32788	32163	
2461	0	32889	32556	
2462	0	32828	32206	
2463	0	32862	32446	
2464	0	32892	32666	
2465	0	32910	32581	
2466	0	32870	32836	
2467	0	32920	32356	
2468	0	32904	32815	
2469	0	32775	32318	
2470	0	32620	32071	
2471	0	32688	32543	
2472	0	32810	32359	
2473	0	32892	32341	
2474	0	32820	32724	
2475	0	32788	32196	
2476	0	32870	32474	
2477	0	33016	32635	
2478	0	32942	32375	
2479	0	32764	32369	
2480	0	32748	32559	
2481	0	32736	32119	
2482	0	32678	32327	
2483	0	32594	32420	
2484	0	32756	32117	
2485	0	32676	32343	
2486	0	32616	32279	
2487	0	32660	32091	
2488	0	32772	32408	
2489	0	32772	32486	
2490	0	32760	32215	
2491	0	32776	32481	
2492	0	32864	32581	
2493	0	32904	32286	
2494	0	32950	32479	
2495	0	32860	32690	
2496	0	32724	32195	
2497	0	32616	32350	
2498	0	32492	32558	
2499	0	32464	32116	
2500	0	32552	32570	
2501	0	32724	32197	
2502	0	32796	32443	
2503	0	32756	32426	
2504	0	32881	32438	
2505	0	32798	32558	
2506	0	32712	32362	
2507	0	32823	32607	
2508	0	32908	32375	
2509	0	32988	32692	
2510	0	32948	32263	
2511	0	32840	32726	
2512	0	32860	32260	
2513	0	33007	32464	
2514	0	32834	32615	
2515	0	32774	32355	
2516	0	32788	32674	
2517	0	32980	32238	
2518	0	32956	32583	
2519	0	33021	32234	
2520	0	33008	32391	
2521	0	33009	32409	
2522	0	32764	31860	
2523	0	32860	32199	
2524	0	32740	32391	
2525	0	32657	32026	
2526	0	32775	32439	
2527	0	32816	32391	
2528	0	32872	32263	
2529	0	32812	32623	
2530	0	32910	32330	
2531	0	33104	33023	
2532	0	33120	32615	
2533	0	32948	32963	
2534	0	32889	32359	
2535	0	32962	32709	
2536	0	32932	32327	
2537	0	33057	32239	
2538	0	33126	32506	
2539	0	32822	31975	
2540	0	32716	32167	
2541	0	32680	32321	
2542	0	32644	32172	
2543	0	32556	32402	
2544	0	32500	31975	
2545	0	32560	32343	
2546	0	32800	32494	
2547	0	32768	32327	
2548	0	32866	32663	
2549	0	32724	32202	
2550	0	32740	32615	
2551	0	32836	32263	
2552	0	32762	32391	
2553	0	32832	32590	
2554	0	33008	32370	
2555	0	32902	32579	
2556	0	32844	32654	
2557	0	32750	32235	
2558	0	32687	32321	
2559	0	32662	32598	
2560	0	32636	32335	
2561	0	32552	32247	
2562	0	32638	32539	
2563	0	32641	32254	
2564	0	32520	32327	
2565	0	32616	32407	
2566	0	32756	32217	
2567	0	32808	32805	
2568	0	32860	32508	
2569	0	32928	32533	
2570	0	33036	32707	
2571	0	33024	32465	
2572	0	32836	32578	
2573	0	32892	32306	
2574	0	32790	32156	
2575	0	32804	32319	
2576	0	32876	31974	
2577	0	32776	32519	
2578	0	32804	32326	
2579	0	32840	32422	
2580	0	32950	32578	
2581	0	32916	32263	
2582	0	32824	32608	
2583	0	32910	32546	
2584	0	32832	32309	
2585	0	32820	32531	
2586	0	32908	32620	
2587	0	32910	32282	
2588	0	32820	32683	
2589	0	32718	32243	
2590	0	32756	32214	
2591	0	32584	32554	
2592	0	32608	32555	
2593	0	32793	32198	
2594	0	32678	32452	
2595	0	32644	32490	
2596	0	32704	32052	
2597	0	32602	32412	
2598	0	32736	31952	
2599	0	32804	32426	
2600	0	32744	32076	
2601	0	32908	32478	
2602	0	32944	32415	
2603	0	32874	32446	
2604	0	32784	32372	
2605	0	32750	32332	
2606	0	32684	32331	
2607	0	32736	32317	
2608	0	32654	32775	
2609	0	32664	32375	
2610	0	32636	32819	
2611	0	32764	32486	
2612	0	32705	32436	
2613	0	32644	32702	
2614	0	32608	32263	
2615	0	32568	32391	
2616	0	32636	32639	
2617	0	32996	32287	
2618	0	33008	32831	
2619	0	32824	32334	
2620	0	32904	32463	
2621	0	32708	32199	
2622	0	32302	32043	
2623	0	32300	32388	
2624	0	32196	32119	
2625	0	31748	32423	
2626	0	31890	32058	
2627	0	31914	32548	
2628	0	32197	32111	
2629	0	32540	32437	
2630	0	32949	32560	
2631	0	33100	32444	
2632	0	33336	32798	
2633	0	33728	32408	
2634	0	34248	32832	
2635	0	34842	32463	
2636	0	34884	32336	
2637	0	34604	32655	
2638	0	33696	32135	
2639	0	32508	32562	
2640	0	32048	32042	
2641	0	31712	32278	
2642	0	31680	32023	
2643	0	31956	32014	
2644	0	32329	32295	
2645	0	32374	32124	
2646	0	32730	32323	
2647	0	33002	32371	
2648	0	33232	32380	
2649	0	33381	32602	
2650	0	33564	32526	
2651	0	33870	32695	
2652	0	34112	32445	
2653	0	34485	32788	
2654	0	34644	32487	
2655	0	34540	32847	
2656	0	34260	32487	
2657	0	33782	32331	
2658	0	33216	32538	
2659	0	32593	32078	
2660	0	32372	32414	
2661	0	31992	31900	
2662	0	31754	32068	
2663	0	31644	32169	
2664	0	31664	32308	
2665	0	31576	32545	
2666	0	31528	32158	
2667	0	31512	32663	
2668	0	31450	32325	
2669	0	31631	32711	
2670	0	31820	32327	
2671	0	31980	32815	
2672	0	32044	32325	
2673	0	32168	32830	
2674	0	32301	32341	
2675	0	32514	32812	
2676	0	32588	32416	
2677	0	32500	32707	
2678	0	32660	32145	
2679	0	32848	32519	
2680	0	32960	32159	
2681	0	33016	32531	
2682	0	33086	32195	
2683	0	32966	32298	
2684	0	33172	32370	
2685	0	33224	32103	
2686	0	33132	32647	
2687	0	33158	32471	
2688	0	33246	32323	
2689	0	33094	32599	
2690	0	33160	32742	
2691	0	32842	32315	
2692	0	32734	32007	
2693	0	32720	32071	
2694	0	32896	32300	
2695	0	32760	32067	
2696	0	32604	31879	
2697	0	32774	32302	
2698	0	32956	32732	
2699	0	32934	32580	
2700	0	33064	32580	
2701	0	33000	32871	
2702	0	33028	32570	
2703	0	32916	32463	
2704	0	32800	32466	
2705	0	32808	32669	
2706	0	32844	32711	
2707	0	32836	32414	
2708	0	32744	32279	
2709	0	32836	32144	
2710	0	32798	32164	
2711	0	32836	32340	
2712	0	32770	32514	
2713	0	32816	32666	
2714	0	32804	32717	
2715	0	32840	32798	
2716	0	32860	32647	
2717	0	32882	32391	
2718	0	32842	32356	
2719	0	32928	32190	
2720	0	32752	32182	
2721	0	32505	32298	
2722	0	32580	32315	
2723	0	32638	32446	
2724	0	32504	32334	
2725	0	32697	32381	
2726	0	32820	32368	
2727	0	32852	32352	
2728	0	32818	32374	
2729	0	32818	32410	
2730	0	33046	32356	
2731	0	32956	32838	
2732	0	33014	32579	
2733	0	33024	32482	
2734	0	33068	32609	
2735	0	32678	32519	
2736	0	32559	32180	
2737	0	32636	32025	
2738	0	32664	32140	
2739	0	32736	32550	
2740	0	32624	32471	
2741	0	32533	32340	
2742	0	32664	32532	
2743	0	33012	32706	
2744	0	32956	32375	
2745	0	32780	32566	
2746	0	32948	32572	
2747	0	32900	32407	
2748	0	32908	32527	
2749	0	32608	32500	
2750	0	32648	32223	
2751	0	32584	32087	
2752	0	32612	32007	
2753	0	32726	32195	
2754	0	32700	32246	
2755	0	32872	32391	
2756	0	32969	32478	
2757	0	32805	32470	
2758	0	32974	32898	
2759	0	33054	32624	
2760	0	33062	32503	
2761	0	33104	32847	
2762	0	33076	32470	
2763	0	32828	32539	
2764	0	32740	32540	
2765	0	32704	32263	
2766	0	32664	32672	
2767	0	32688	32348	
2768	0	32652	32239	
2769	0	32612	32427	
2770	0	32708	32103	
2771	0	32837	32135	
2772	0	32744	32543	
2773	0	32625	32103	
2774	0	32704	32263	
2775	0	32644	32621	
2776	0	32744	31972	
2777	0	32746	32252	
2778	0	32844	32439	
2779	0	32768	32487	
2780	0	32962	32620	
2781	0	32836	32519	
2782	0	32768	32422	
2783	0	32904	32372	
2784	0	32852	32335	
2785	0	32904	32341	
2786	0	32820	32207	
2787	0	33056	32199	
2788	0	32817	31956	
2789	0	32656	32162	
2790	0	32726	32319	
2791	0	32932	32568	
2792	0	32920	32339	
2793	0	32840	32204	
2794	0	32884	32375	
2795	0	32858	32561	
2796	0	32748	32572	
2797	0	32688	32775	
2798	0	32844	32775	
2799	0	32822	32472	
2800	0	32710	32211	
2801	0	32682	32227	
2802	0	32705	32519	
2803	0	32740	32746	
2804	0	32900	33031	
2805	0	32996	33271	
2806	0	33044	33174	
2807	0	32954	33119	
2808	0	32996	33077	
2809	0	33104	32807	
2810	0	32965	32538	
2811	0	33044	32406	
2812	0	32776	32253	
2813	0	32552	31887	
2814	0	32656	31775	
2815	0	32452	31719	
2816	0	32400	31695	
2817	0	32630	31750	
2818	0	32442	31767	
2819	0	32388	31983	
2820	0	32427	31823	
2821	0	32462	31972	
2822	0	32822	32149	
2823	0	33086	32345	
2824	0	33124	32599	
2825	0	33112	32647	
2826	0	33143	32658	
2827	0	33096	32915	
2828	0	33134	32586	
2829	0	32938	32971	
2830	0	33014	32702	
2831	0	32940	33014	
2832	0	32735	32493	
2833	0	32922	32345	
2834	0	32908	32455	
2835	0	32740	32047	
2836	0	32788	32379	
2837	0	32684	31699	
2838	0	32648	32343	
2839	0	32465	31948	
2840	0	32484	32483	
2841	0	32708	32061	
2842	0	32912	32423	
2843	0	32744	31948	
2844	0	32624	32261	
2845	0	32800	32192	
2846	0	32766	32263	
2847	0	33004	32448	
2848	0	32996	32477	
2849	0	32821	32566	
2850	0	32912	32554	
2851	0	32878	32455	
2852	0	32842	32263	
2853	0	32844	32540	
2854	0	32788	32119	
2855	0	32928	32446	
2856	0	32844	32437	
2857	0	32990	32252	
2858	0	32996	32511	
2859	0	33120	32371	
2860	0	32964	32145	
2861	0	32920	32567	
2862	0	32826	32879	
2863	0	32420	32827	
2864	0	32364	32583	
2865	0	32482	32460	
2866	0	32480	32596	
2867	0	32516	32938	
2868	0	32742	32843	
2869	0	33028	32389	
2870	0	32976	32506	
2871	0	32712	32564	
2872	0	32476	32286	
2873	0	32490	32027	
2874	0	32604	32231	
2875	0	32770	31988	
2876	0	32704	31975	
2877	0	32528	32470	
2878	0	32892	32452	
2879	0	32812	32495	
2880	0	32964	32807	
2881	0	32998	32431	
2882	0	32938	32743	
2883	0	32964	32356	
2884	0	32958	32218	
2885	0	32844	32095	
2886	0	32762	31926	
2887	0	32612	32055	
2888	0	32776	32183	
2889	0	32796	32122	
2890	0	32774	32104	
2891	0	32822	32235	
2892	0	32952	32373	
2893	0	32906	32483	
2894	0	32930	32554	
2895	0	32745	32647	
2896	0	32826	32619	
2897	0	32672	32479	
2898	0	32894	32375	
2899	0	32660	32391	
2900	0	32545	32299	
2901	0	32608	32129	
2902	0	32744	32020	
2903	0	32676	31989	
2904	0	32662	32074	
2905	0	32650	32495	
2906	0	32554	32207	
2907	0	32674	32175	
2908	0	32849	32471	
2909	0	33112	32198	
2910	0	33092	32610	
2911	0	33034	32576	
2912	0	32880	32590	
2913	0	32761	32716	
2914	0	32874	32494	
2915	0	32972	32839	
2916	0	33104	32868	
2917	0	33246	32532	
2918	0	33284	32862	
2919	0	32938	32487	
2920	0	32832	32367	
2921	0	32876	32455	
2922	0	32697	32375	
2923	0	32580	31950	
2924	0	32426	31910	
2925	0	32336	31974	
2926	0	32392	31879	
2927	0	32204	31451	
2928	0	32312	31839	
2929	0	32686	32356	
2930	0	33200	32402	
2931	0	33132	32397	
2932	0	32980	32815	
2933	0	33126	32834	
2934	0	33162	32532	
2935	0	32984	32967	
2936	0	32994	32455	
2937	0	33020	32578	
2938	0	32744	32815	
2939	0	32732	32695	
2940	0	32740	32765	
2941	0	32710	32719	
2942	0	32972	32348	
2943	0	32724	32516	
2944	0	32708	32508	
2945	0	32888	32252	
2946	0	32804	32596	
2947	0	32700	32126	
2948	0	32680	32437	
2949	0	32678	32362	
2950	0	32780	32444	
2951	0	32924	32620	
2952	0	32676	32357	
2953	0	32762	32558	
2954	0	32964	32212	
2955	0	32780	32364	
2956	0	32774	32114	
2957	0	32856	32567	
2958	0	32716	32151	
2959	0	32780	32479	
2960	0	32732	32111	
2961	0	32582	32647	
2962	0	32650	32348	
2963	0	32768	32316	
2964	0	32756	32631	
2965	0	32832	32207	
2966	0	32852	32723	
2967	0	32872	32371	
2968	0	32946	32417	
2969	0	32980	32647	
2970	0	32857	32372	
2971	0	32856	32695	
2972	0	32854	32215	
2973	0	32775	32578	
2974	0	32798	32218	
2975	0	32840	32700	
2976	0	32810	32183	
2977	0	32885	32647	
2978	0	33064	32164	
2979	0	32938	32481	
2980	0	32882	32358	
2981	0	32754	32511	
2982	0	32780	32380	
2983	0	32824	32575	
2984	0	32646	32303	
2985	0	32616	32519	
2986	0	32828	32324	
2987	0	32748	32487	
2988	0	32804	32231	
2989	0	32896	32575	
2990	0	32676	32207	
2991	0	32620	32502	
2992	0	32798	32207	
2993	0	32612	32505	
2994	0	32774	32206	
2995	0	32842	32452	
2996	0	32800	32576	
2997	0	32878	32632	
2998	0	32936	32662	
2999	0	32890	32670	
3000	0	32868	32666	
3001	0	32810	32452	
3002	0	32892	32406	
3003	0	32744	32621	
3004	0	32702	32325	
3005	0	32782	32642	
3006	0	32792	32212	
3007	0	32772	32598	
3008	0	32820	32215	
3009	0	32832	32647	
3010	0	32780	32223	
3011	0	32744	32519	
3012	0	32746	32426	
3013	0	32900	32356	
3014	0	32796	32647	
3015	0	32752	32227	
3016	0	32678	32354	
3017	0	32852	32576	
3018	0	32824	32199	
3019	0	32725	32618	
3020	0	32918	32231	
3021	0	32742	32356	
3022	0	32776	32643	
3023	0	32676	32135	
3024	0	32710	32348	
3025	0	32684	32428	
3026	0	32953	32207	
3027	0	32848	32665	
3028	0	32836	32209	
3029	0	32790	32363	
3030	0	32822	32372	
3031	0	32806	32375	
3032	0	32890	32516	
3033	0	32944	32503	
3034	0	32876	32575	
3035	0	32740	32860	
3036	0	32816	32743	
3037	0	32865	32609	
3038	0	33028	32590	
3039	0	33040	32466	
3040	0	32800	32279	
3041	0	32648	32126	
3042	0	32733	32457	
3043	0	32569	31847	
3044	0	32404	32215	
3045	0	32412	31877	
3046	0	32596	32477	
3047	0	32654	32126	
3048	0	32812	32335	
3049	0	32984	32383	
3050	0	32958	32487	
3051	0	32878	32479	
3052	0	33012	32372	
3053	0	32848	32775	
3054	0	32920	32319	
3055	0	32900	32495	
3056	0	32870	32533	
3057	0	32932	32556	
3058	0	32768	32822	
3059	0	32708	32203	
3060	0	32708	32570	
3061	0	32708	32079	
3062	0	32688	32502	
3063	0	32518	31919	
3064	0	32530	32383	
3065	0	32558	31899	
3066	0	32848	32543	
3067	0	32772	32047	
3068	0	32888	32679	
3069	0	32844	32362	
3070	0	32986	32412	
3071	0	32924	32534	
3072	0	32888	32546	
3073	0	32804	32583	
3074	0	32740	32370	
3075	0	32618	32473	
3076	0	32730	32562	
3077	0	32566	32227	
3078	0	32628	32692	
3079	0	32775	32122	
3080	0	32740	32607	
3081	0	32788	32332	
3082	0	32686	32536	
3083	0	32660	32234	
3084	0	32788	32671	
3085	0	32953	32243	
3086	0	32874	32462	
3087	0	32798	32334	
3088	0	32672	32463	
3089	0	32900	32572	
3090	0	33007	32324	
3091	0	32896	32731	
3092	0	32988	32384	
3093	0	33082	32715	
3094	0	33118	32228	
3095	0	32832	32735	
3096	0	32880	32261	
3097	0	32860	32454	
3098	0	32844	32062	
3099	0	32798	32287	
3100	0	32796	32047	
3101	0	32596	32108	
3102	0	32588	32116	
3103	0	32432	32098	
3104	0	32768	32404	
3105	0	32996	32212	
3106	0	32824	32614	
3107	0	32871	32285	
3108	0	32904	32674	
3109	0	32900	32668	
3110	0	32948	32415	
3111	0	32992	32711	
3112	0	33124	32343	
3113	0	33028	32700	
3114	0	33008	32446	
3115	0	32990	32434	
3116	0	33134	32466	
3117	0	33068	32349	
3118	0	33076	32656	
3119	0	33038	32251	
3120	0	32780	32688	
3121	0	32840	32263	
3122	0	32576	32519	
3123	0	32610	32227	
3124	0	32604	32511	
3125	0	32650	32167	
3126	0	32636	32540	
3127	0	32640	32196	
3128	0	32712	32724	
3129	0	32853	32219	
3130	0	32950	32661	
3131	0	32848	32476	
3132	0	32714	32350	
3133	0	32788	32707	
3134	0	32908	32391	
3135	0	32642	32153	
3136	0	32697	32460	
3137	0	32672	31978	
3138	0	32672	32450	
3139	0	32476	32223	
3140	0	32382	32106	
3141	0	32572	32449	
3142	0	32702	32124	
3143	0	32689	32583	
3144	0	32728	32247	
3145	0	32724	32314	
3146	0	32902	32647	
3147	0	32894	32332	
3148	0	32996	32566	
3149	0	32940	32647	
3150	0	32966	32374	
3151	0	32940	32747	
3152	0	32950	32530	
3153	0	32940	32391	
3154	0	32936	32548	
3155	0	32890	32501	
3156	0	32904	32581	
3157	0	32904	32628	
3158	0	32878	32248	
3159	0	32894	32316	
3160	0	32774	32710	
3161	0	32732	32279	
3162	0	32748	32106	
3163	0	32862	32575	
3164	0	32712	32391	
3165	0	32679	32119	
3166	0	32752	32501	
3167	0	32724	32478	
3168	0	32808	32222	
3169	0	32737	32695	
3170	0	32660	32223	
3171	0	32688	32490	
3172	0	32784	32391	
3173	0	32798	32298	
3174	0	32888	32516	
3175	0	32870	32327	
3176	0	32820	32231	
3177	0	32816	32258	
3178	0	32912	32279	
3179	0	32682	32352	
3180	0	32806	32423	
3181	0	32856	32380	
3182	0	32781	32495	
3183	0	32840	32711	
3184	0	32788	32583	
3185	0	32620	32481	
3186	0	32576	32348	
3187	0	32686	32215	
3188	0	32624	32164	
3189	0	32680	32349	
3190	0	32564	32534	
3191	0	32606	32634	
3192	0	32580	32427	
3193	0	32620	32452	
3194	0	32624	32221	
3195	0	32446	32171	
3196	0	32542	32213	
3197	0	32692	32383	
3198	0	32628	32330	
3199	0	32693	32551	
3200	0	32812	32731	
3201	0	32928	32876	
3202	0	32828	32719	
3203	0	32599	32491	
3204	0	32466	32327	
3205	0	32412	32263	
3206	0	32436	32212	
3207	0	32590	32156	
3208	0	32490	32374	
3209	0	32536	31964	
3210	0	32628	32273	
3211	0	32804	31999	
3212	0	32756	32340	
3213	0	32960	31826	
3214	0	33348	32479	
3215	0	33632	32007	
3216	0	33732	32631	
3217	0	33812	32340	
3218	0	33548	32399	
3219	0	33136	32519	
3220	0	32788	32332	
3221	0	32902	32656	
3222	0	32930	32311	
3223	0	33128	32728	
3224	0	33526	32372	
3225	0	33508	32490	
3226	0	33560	32456	
3227	0	33420	32366	
3228	0	33420	32692	
3229	0	33304	32215	
3230	0	33096	32486	
3231	0	33000	32614	
3232	0	33349	32303	
3233	0	33809	32487	
3234	0	34222	32354	
3235	0	34180	32479	
3236	0	33713	32366	
3237	0	33234	32219	
3238	0	32929	32702	
3239	0	32377	32228	
3240	0	32148	32450	
3241	0	31896	32135	
3242	0	31857	32703	
3243	0	31928	32198	
3244	0	31704	32593	
3245	0	31588	32247	
3246	0	31684	32532	
3247	0	31710	32340	
3248	0	31698	32375	
3249	0	31664	32443	
3250	0	31854	32305	
3251	0	31906	32614	
3252	0	32066	32135	
3253	0	32287	32631	
3254	0	32388	32299	
3255	0	32540	32310	
3256	0	32634	32595	
3257	0	32638	32247	
3258	0	32885	32434	
3259	0	32775	32359	
3260	0	32918	32358	
3261	0	32990	32450	
3262	0	32974	32391	
3263	0	33050	32500	
3264	0	33124	32322	
3265	0	33218	32583	
3266	0	33094	32230	
3267	0	33100	32574	
3268	0	33002	32183	
3269	0	32917	32678	
3270	0	32988	32263	
3271	0	32868	32487	
3272	0	33004	32262	
3273	0	32996	32743	
3274	0	32807	32260	
3275	0	32922	32487	
3276	0	32910	32546	
3277	0	32912	32239	
3278	0	32900	32423	
3279	0	32892	32295	
3280	0	32830	32356	
3281	0	32860	32567	
3282	0	32892	32231	
3283	0	32834	32602	
3284	0	32852	32159	
3285	0	32798	32647	
3286	0	32796	32279	
3287	0	32836	32519	
3288	0	32772	32263	
3289	0	32806	32447	
3290	0	32872	32640	
3291	0	32852	32303	
3292	0	32892	32602	
3293	0	32772	32582	
3294	0	32592	32641	
3295	0	32704	32222	
3296	0	32776	32426	
3297	0	32775	32606	
3298	0	32860	32337	
3299	0	32858	32349	
3300	0	32792	32606	
3301	0	32801	32327	
3302	0	32864	32316	
3303	0	32778	32630	
3304	0	32794	32187	
3305	0	32886	32399	
3306	0	32872	32559	
3307	0	32814	32207	
3308	0	32826	32658	
3309	0	32775	32149	
3310	0	32804	32685	
3311	0	32808	32351	
3312	0	32740	32311	
3313	0	32906	32604	
3314	0	32776	32252	
3315	0	32808	32593	
3316	0	32764	32386	
3317	0	32796	32263	
3318	0	32718	32727	
3319	0	32830	32290	
3320	0	32876	32193	
3321	0	32780	32334	
3322	0	32820	32631	
3323	0	32840	32459	
3324	0	32724	32174	
3325	0	32784	32353	
3326	0	32912	32615	
3327	0	32725	32529	
3328	0	32922	32263	
3329	0	32864	32252	
3330	0	32736	32417	
3331	0	32700	32631	
3332	0	32820	32371	
3333	0	32772	32199	
3334	0	32798	32359	
3335	0	32676	32668	
3336	0	32792	32330	
3337	0	32742	32263	
3338	0	32828	32643	
3339	0	32764	32276	
3340	0	32823	32263	
3341	0	32764	32608	
3342	0	32830	32404	
3343	0	32832	32204	
3344	0	32852	32391	
3345	0	32744	32615	
3346	0	32732	32336	
3347	0	32896	32302	
3348	0	32858	32692	
3349	0	32816	32402	
3350	0	32876	32167	
3351	0	32780	32471	
3352	0	32737	32487	
3353	0	32820	32252	
3354	0	32756	32351	
3355	0	32852	32574	
3356	0	32811	32263	
3357	0	32798	32345	
3358	0	32736	32666	
3359	0	32792	32239	
3360	0	32888	32519	
3361	0	32826	32469	
3362	0	32776	32316	
3363	0	32760	32615	
3364	0	32796	32246	
3365	0	32832	32359	
3366	0	32868	32603	
3367	0	32782	32564	
3368	0	32836	32551	
3369	0	32802	32235	
3370	0	32764	32630	
3371	0	32808	32251	
3372	0	32716	32434	
3373	0	32760	32382	
3374	0	32840	32407	
3375	0	32796	32710	
3376	0	32740	32295	
3377	0	32816	32543	
3378	0	32749	32403	
3379	0	32818	32321	
3380	0	32801	32662	
3381	0	32830	32294	
3382	0	32858	32415	
3383	0	32804	32402	
3384	0	32790	32168	
3385	0	32792	32629	
3386	0	32824	32098	
3387	0	32804	32286	
3388	0	32844	32519	
3389	0	32846	32567	
3390	0	32892	32660	
3391	0	32790	32436	
3392	0	32812	32319	
3393	0	32828	32238	
3394	0	32836	32223	
3395	0	32820	32607	
3396	0	32766	32601	
3397	0	32752	32228	
3398	0	32820	32332	
3399	0	32842	32635	
3400	0	32820	32527	
3401	0	32788	32263	
3402	0	32840	32471	
3403	0	32808	32642	
3404	0	32762	32382	
3405	0	32824	32180	
3406	0	32870	32223	
3407	0	32796	32390	
3408	0	32712	32575	
3409	0	32788	32277	
3410	0	32814	32375	
3411	0	32822	32578	
3412	0	32748	32188	
3413	0	32800	32390	
3414	0	32844	32618	
3415	0	32842	32182	
3416	0	32817	32636	
3417	0	32821	32180	
3418	0	32734	32629	
3419	0	32804	32279	
3420	0	32768	32479	
3421	0	32830	32414	
3422	0	32804	32398	
3423	0	32752	32571	
3424	0	32780	32219	
3425	0	32836	32529	
3426	0	32776	32487	
3427	0	32734	32263	
3428	0	32834	32370	
3429	0	32817	32591	
3430	0	32834	32260	
3431	0	32768	32263	
3432	0	32797	32274	
3433	0	32804	32197	
3434	0	32854	32245	
3435	0	32841	32356	
3436	0	32848	32474	
3437	0	32820	32519	
3438	0	32852	32503	
3439	0	32804	32503	
3440	0	32730	32470	
3441	0	32840	32534	
3442	0	32775	32506	
3443	0	32700	32580	
3444	0	32766	32671	
3445	0	32796	32615	
3446	0	32816	32575	
3447	0	32820	32550	
3448	0	32800	32655	
3449	0	32768	32623	
3450	0	32752	32542	
3451	0	32742	32455	
3452	0	32816	32465	
3453	0	32751	32482	
3454	0	32768	32340	
3455	0	32818	32367	
3456	0	32706	32383	
3457	0	32782	32422	
3458	0	32840	32353	
3459	0	32791	32298	
3460	0	32836	32179	
3461	0	32752	32239	
3462	0	32804	32410	
3463	0	32750	32359	
3464	0	32758	32215	
3465	0	32756	32328	
3466	0	32772	32631	
3467	0	32704	32539	
3468	0	32764	32236	
3469	0	32808	32382	
3470	0	32832	32615	
3471	0	32800	32421	
3472	0	32804	32218	
3473	0	32852	32486	
3474	0	32760	32371	
3475	0	32725	32424	
3476	0	32719	32278	
3477	0	32736	32263	
3478	0	32768	32171	
3479	0	32812	32232	
3480	0	32800	32180	
3481	0	32744	32589	
3482	0	32800	32371	
3483	0	32764	32372	
3484	0	32858	32571	
3485	0	32837	32239	
3486	0	32772	32418	
3487	0	32844	32627	
3488	0	32794	32318	
3489	0	32727	32204	
3490	0	32820	32428	
3491	0	32804	32686	
3492	0	32880	32487	
3493	0	32840	32199	
3494	0	32800	32431	
3495	0	32794	32478	
3496	0	32824	32223	
3497	0	32775	32427	
3498	0	32834	32405	
3499	0	32832	32458	
3500	0	32804	32454	
3501	0	32805	32327	
3502	0	32830	32563	
3503	0	32744	32263	
3504	0	32692	32583	
3505	0	32800	32182	
3506	0	32868	32439	
3507	0	32864	32579	
3508	0	32800	32215	
3509	0	32812	32519	
3510	0	32812	32447	
3511	0	32816	32354	
3512	0	32785	32248	
3513	0	32848	32223	
3514	0	32714	32191	
3515	0	32732	32359	
3516	0	32824	32492	
3517	0	32828	32655	
3518	0	32914	32639	
3519	0	32802	32612	
3520	0	32752	32378	
3521	0	32828	32241	
3522	0	32878	32250	
3523	0	32898	32370	
3524	0	32752	32580	
3525	0	32716	32615	
3526	0	32818	32263	
3527	0	32828	32223	
3528	0	32832	32356	
3529	0	32774	32223	
3530	0	32824	32311	
3531	0	32781	32630	
3532	0	32800	32315	
3533	0	32789	32488	
3534	0	32780	32342	
3535	0	32854	32439	
3536	0	32782	32519	
3537	0	32836	32215	
3538	0	32828	32614	
3539	0	32810	32161	
3540	0	32780	32507	
3541	0	32785	32450	
3542	0	32772	32247	
3543	0	32724	32711	
3544	0	32820	32497	
3545	0	32840	32591	
3546	0	32788	32647	
3547	0	32788	32614	
3548	0	32792	32671	
3549	0	32798	32623	
3550	0	32761	32529	
3551	0	32744	32493	
3552	0	32856	32580	
3553	0	32844	32679	
3554	0	32775	32391	
3555	0	32794	32335	
3556	0	32800	32502	
3557	0	32772	32263	
3558	0	32852	32511	
3559	0	32804	32423	
3560	0	32760	32391	
3561	0	32772	32530	
3562	0	32848	32228	
3563	0	32896	32697	
3564	0	32775	32256	
3565	0	32764	32508	
3566	0	32736	32327	
3567	0	32804	32374	
3568	0	32774	32519	
3569	0	32768	32164	
3570	0	32846	32725	
3571	0	32836	32204	
3572	0	32874	32486	
3573	0	32842	32332	
3574	0	32832	32356	
3575	0	32836	32655	
3576	0	32746	32148	
3577	0	32764	32381	
3578	0	32844	32652	
3579	0	32836	32319	
3580	0	32820	32647	
3581	0	32820	32383	
3582	0	32834	32380	
3583	0	32756	32564	
3584	0	32764	32238	
3585	0	32844	32519	
3586	0	32834	32519	
3587	0	32834	32222	
3588	0	32794	32331	
3589	0	32792	32667	
3590	0	32748	32215	
3591	0	32812	32308	
3592	0	32844	32638	
3593	0	32816	32259	
3594	0	32764	32428	
3595	0	32708	32476	
3596	0	32804	32263	
3597	0	32768	32623	
3598	0	32824	32316	
3599	0	32808	32391	
3600	0	32748	32564	
3601	0	32904	32287	
3602	0	32788	32644	
3603	0	32754	32263	
3604	0	32884	32479	
3605	0	32824	32439	
3606	0	32830	32436	
3607	0	32845	32494	
3608	0	32776	32343	
3609	0	32752	32343	
3610	0	32748	32253	
3611	0	32844	32165	
3612	0	32812	32179	
3613	0	32790	32308	
3614	0	32918	32340	
3615	0	32868	32450	
3616	0	32800	32510	
3617	0	32812	32355	
3618	0	32846	32554	
3619	0	32754	32263	
3620	0	32884	32711	
3621	0	32746	32231	
3622	0	32844	32492	
3623	0	32812	32455	
3624	0	32796	32308	
3625	0	32780	32666	
3626	0	32742	32219	
3627	0	32800	32639	
3628	0	32730	32299	
3629	0	32750	32503	
3630	0	32816	32510	
3631	0	32844	32243	
3632	0	32769	32631	
3633	0	32762	32180	
3634	0	32774	32391	
3635	0	32782	32511	
3636	0	32580	32486	
3637	0	32728	32236	
3638	0	32730	32399	
3639	0	32868	32516	
3640	0	32716	32322	
3641	0	32840	32558	
3642	0	32749	32346	
3643	0	32784	32540	
3644	0	32816	32235	
3645	0	32840	32591	
3646	0	32862	32197	
3647	0	32752	32623	
3648	0	32814	32241	
3649	0	32624	32666	
3650	0	32614	32188	
3651	0	32662	32656	
3652	0	32708	32229	
3653	0	32636	32519	
3654	0	32703	32282	
3655	0	32695	32458	
3656	0	32678	32276	
3657	0	32748	32223	
3658	0	32763	32311	
3659	0	32782	32415	
3660	0	32764	32591	
3661	0	32804	32620	
3662	0	32798	32639	
3663	0	32868	32700	
3664	0	32844	32665	
3665	0	32780	32686	
3666	0	32744	32590	
3667	0	32856	32599	
3668	0	32862	32639	
3669	0	32900	32598	
3670	0	32940	32550	
3671	0	32888	32325	
3672	0	32938	32676	
3673	0	32986	32190	
3674	0	33038	32591	
3675	0	33146	32239	
3676	0	33018	32602	
3677	0	33000	32231	
3678	0	32952	32628	
3679	0	32914	32188	
3680	0	33018	32455	
3681	0	32900	32570	
3682	0	32772	32244	
3683	0	32809	32598	
3684	0	32794	32160	
3685	0	32810	32647	
3686	0	32764	32143	
3687	0	32796	32586	
3688	0	32804	32259	
3689	0	32902	32405	
3690	0	32948	32383	
3691	0	33022	32485	
3692	0	32972	32343	
3693	0	32930	32467	
3694	0	32856	32414	
3695	0	32882	32383	
3696	0	32756	32508	
3697	0	32608	32257	
3698	0	32636	32619	
3699	0	32616	32250	
3700	0	32612	32446	
3701	0	32572	32503	
3702	0	32688	32189	
3703	0	32740	32535	
3704	0	32892	32260	
3705	0	32826	32612	
3706	0	32824	32261	
3707	0	32814	32512	
3708	0	32782	32359	
3709	0	32790	32432	
3710	0	32872	32335	
3711	0	32840	32583	
3712	0	32756	32302	
3713	0	32728	32555	
3714	0	32684	32228	
3715	0	32748	32503	
3716	0	32632	32319	
3717	0	32764	32487	
3718	0	32748	32167	
3719	0	32744	32570	
3720	0	32796	32214	
3721	0	32740	32549	
3722	0	32802	32221	
3723	0	32744	32606	
3724	0	32886	32235	
3725	0	32897	32588	
3726	0	32860	32379	
3727	0	32936	32543	
3728	0	32892	32340	
3729	0	32878	32617	
3730	0	32956	32214	
3731	0	32852	32590	
3732	0	32892	32250	
3733	0	32836	32663	
3734	0	32820	32228	
3735	0	32880	32670	
3736	0	32830	32194	
3737	0	32786	32647	
3738	0	32788	32149	
3739	0	32824	32590	
3740	0	32668	32167	
3741	0	32672	32557	
3742	0	32748	32366	
3743	0	32804	32359	
3744	0	32680	32407	
3745	0	32742	32167	
3746	0	32732	32471	
3747	0	32764	32293	
3748	0	32775	32460	
3749	0	32775	32398	
3750	0	32744	32362	
3751	0	32744	32309	
3752	0	32804	32439	
3753	0	32748	32215	
3754	0	32780	32519	
3755	0	32820	32277	
3756	0	32757	32610	
3757	0	32732	32187	
3758	0	32762	32647	
3759	0	32772	32162	
3760	0	32742	32647	
3761	0	32670	32309	
3762	0	32752	32551	
3763	0	32664	32342	
3764	0	32740	32454	
3765	0	32712	32353	
3766	0	32608	32436	
3767	0	32564	32431	
3768	0	32552	32379	
3769	0	32572	32462	
3770	0	32564	32391	
3771	0	32444	32322	
3772	0	32526	32286	
3773	0	32580	32637	
3774	0	32640	32214	
3775	0	32548	32631	
3776	0	32484	32276	
3777	0	32294	32407	
3778	0	32263	32411	
3779	0	32346	32327	
3780	0	32593	32517	
3781	0	32608	32214	
3782	0	32790	32702	
3783	0	32848	32167	
3784	0	32844	32622	
3785	0	33016	32344	
3786	0	33275	32414	
3787	0	33434	32366	
3788	0	33686	32196	
3789	0	33844	32588	
3790	0	33996	32175	
3791	0	33760	32483	
3792	0	33492	32255	
3793	0	33236	32644	
3794	0	33192	32276	
3795	0	33124	32340	
3796	0	33492	32590	
3797	0	33424	32135	
3798	0	33314	32455	
3799	0	33350	32497	
3800	0	33320	32231	
3801	0	33238	32538	
3802	0	33112	32255	
3803	0	33456	32684	
3804	0	33928	32436	
3805	0	33976	32295	
3806	0	33976	32663	
3807	0	33852	32494	
3808	0	33658	32171	
3809	0	33376	32391	
3810	0	33036	32575	
3811	0	32542	32259	
3812	0	32174	32377	
3813	0	31748	32594	
3814	0	31544	32260	
3815	0	31278	32317	
3816	0	31201	32583	
3817	0	31286	32599	
3818	0	31332	32562	
3819	0	31333	32476	
3820	0	31304	32422	
3821	0	31476	32331	
3822	0	31568	32357	
3823	0	31736	32435	
3824	0	31986	32415	
3825	0	32221	32503	
3826	0	32366	32247	
3827	0	32484	32479	
3828	0	32560	32364	
3829	0	32674	32332	
3830	0	32862	32467	
3831	0	33003	32231	
3832	0	33148	32637	
3833	0	33228	32230	
3834	0	33280	32526	
3835	0	33304	32364	
3836	0	33228	32391	
3837	0	33344	32575	
3838	0	33278	32476	
3839	0	33164	32663	
3840	0	33060	32495	
3841	0	33050	32411	
3842	0	33064	32391	
3843	0	33040	32319	
3844	0	33012	32287	
3845	0	32922	32288	
3846	0	32892	32215	
3847	0	32929	32197	
3848	0	32812	32263	
3849	0	32818	32672	
3850	0	32884	32325	
3851	0	32878	32260	
3852	0	32924	32673	
3853	0	32792	32284	
3854	0	32796	32340	
3855	0	32804	32639	
3856	0	32778	32222	
3857	0	32822	32606	
3858	0	32794	32347	
3859	0	32751	32351	
3860	0	32788	32502	
3861	0	32720	32263	
3862	0	32796	32686	
3863	0	32804	32246	
3864	0	32862	32630	
3865	0	32808	32231	
3866	0	32855	32657	
3867	0	32812	32241	
3868	0	32814	32466	
3869	0	32794	32238	
3870	0	32804	32564	
3871	0	32874	32327	
3872	0	32828	32347	
3873	0	32772	32351	
3874	0	32820	32415	
3875	0	32824	32262	
3876	0	32756	32463	
3877	0	32772	32421	
3878	0	32762	32215	
3879	0	32742	32633	
3880	0	32815	32215	
3881	0	32810	32693	
3882	0	32838	32255	
3883	0	32832	32579	
3884	0	32832	32519	
3885	0	32804	32119	
3886	0	32706	32590	
3887	0	32758	32437	
3888	0	32776	32299	
3889	0	32794	32567	
3890	0	32768	32231	
3891	0	32844	32367	
3892	0	32848	32647	
3893	0	32748	32162	
3894	0	32728	32542	
3895	0	32852	32279	
3896	0	32808	32570	
3897	0	32802	32186	
3898	0	32824	32639	
3899	0	32834	32183	
3900	0	32836	32455	
3901	0	32840	32555	
3902	0	32848	32171	
3903	0	32740	32629	
3904	0	32792	32442	
3905	0	32810	32179	
3906	0	32822	32455	
3907	0	32748	32610	
3908	0	32764	32287	
3909	0	32896	32263	
3910	0	32784	32454	
3911	0	32876	32423	
3912	0	32856	32367	
3913	0	32804	32492	
3914	0	32750	32190	
3915	0	32782	32630	
3916	0	32822	32187	
3917	0	32768	32527	
3918	0	32788	32220	
3919	0	32840	32670	
3920	0	32846	32307	
3921	0	32760	32359	
3922	0	32820	32588	
3923	0	32782	32251	
3924	0	32705	32455	
3925	0	32788	32551	
3926	0	32818	32247	
3927	0	32774	32634	
3928	0	32832	32215	
3929	0	32818	32356	
3930	0	32788	32583	
3931	0	32764	32190	
3932	0	32856	32519	
3933	0	32832	32468	
3934	0	32828	32231	
3935	0	32868	32381	
3936	0	32780	32519	
3937	0	32766	32262	
3938	0	32806	32615	
3939	0	32768	32158	
3940	0	32799	32470	
3941	0	32740	32385	
3942	0	32796	32326	
3943	0	32788	32692	
3944	0	32817	32244	
3945	0	32788	32414	
3946	0	32808	32551	
3947	0	32805	32204	
3948	0	32814	32488	
3949	0	32804	32343	
3950	0	32886	32348	
3951	0	32808	32583	
3952	0	32780	32287	
3953	0	32802	32526	
3954	0	32772	32519	
3955	0	32734	32231	
3956	0	32784	32247	
3957	0	32766	32567	
3958	0	32844	32191	
3959	0	32884	32487	
3960	0	32796	32383	
3961	0	32826	32257	
3962	0	32696	32646	
3963	0	32782	32196	
3964	0	32810	32629	
3965	0	32816	32197	
3966	0	32798	32671	
3967	0	32804	32276	
3968	0	32764	32605	
3969	0	32772	32162	
3970	0	32822	32751	
3971	0	32848	32331	
3972	0	32850	32229	
3973	0	32840	32452	
3974	0	32856	32590	
3975	0	32812	32485	
3976	0	32840	32199	
3977	0	32808	32260	
3978	0	32804	32679	
3979	0	32832	32602	
3980	0	32804	32420	
3981	0	32852	32203	
3982	0	32772	32375	
3983	0	32804	32647	
3984	0	32828	32455	
3985	0	32758	32167	
3986	0	32772	32367	
3987	0	32850	32666	
3988	0	32798	32498	
3989	0	32834	32263	
3990	0	32764	32587	
3991	0	32868	32257	
3992	0	32808	32219	
3993	0	32762	32476	
3994	0	32849	32571	
3995	0	32844	32189	
3996	0	32799	32436	
3997	0	32842	32652	
3998	0	32830	32279	
3999	0	32846	32327	
4000	0	32804	32679	
4001	0	32766	32300	
4002	0	32760	32194	
4003	0	32766	32364	
4004	0	32764	32511	
4005	0	32804	32196	
4006	0	32764	32351	
4007	0	32775	32580	
4008	0	32796	32228	
4009	0	32768	32318	
4010	0	32736	32580	
4011	0	32757	32455	
4012	0	32792	32148	
4013	0	32840	32437	
4014	0	32792	32657	
4015	0	32714	32202	
4016	0	32836	32564	
4017	0	32826	32428	
4018	0	32756	32339	
4019	0	32814	32647	
4020	0	32804	32164	
4021	0	32831	32663	
4022	0	32761	32215	
4023	0	32772	32438	
4024	0	32840	32455	
4025	0	32828	32302	
4026	0	32812	32551	
4027	0	32808	32195	
4028	0	32784	32410	
4029	0	32791	32474	
4030	0	32780	32310	
4031	0	32768	32668	
4032	0	32761	32151	
4033	0	32788	32679	
4034	0	32718	32655	
4035	0	32826	32391	
4036	0	32808	32260	
4037	0	32767	32258	
4038	0	32812	32223	
4039	0	32696	32231	
4040	0	32752	32174	
4041	0	32776	32197	
4042	0	32772	32142	
4043	0	32808	32295	
4044	0	32816	32286	
4045	0	32796	32215	
4046	0	32780	32343	
4047	0	32766	32485	
4048	0	32857	32599	
4049	0	32750	32701	
4050	0	32776	32606	
4051	0	32732	32442	
4052	0	32788	32263	
4053	0	32756	32608	
4054	0	32804	32191	
4055	0	32772	32486	
4056	0	32782	32519	
4057	0	32788	32487	
4058	0	32772	32450	
4059	0	32868	32583	
4060	0	32840	32572	
4061	0	32796	32475	
4062	0	32816	32511	
4063	0	32800	32519	
4064	0	32801	32439	
4065	0	32822	32359	
4066	0	32769	32351	
4067	0	32849	32447	
4068	0	32868	32419	
4069	0	32820	32443	
4070	0	32820	32413	
4071	0	32752	32431	
4072	0	32856	32535	
4073	0	32880	32679	
4074	0	32869	32638	
4075	0	32840	32677	
4076	0	32832	32418	
4077	0	32820	32403	
4078	0	32775	32503	
4079	0	32799	32412	
4080	0	32836	32284	
4081	0	32830	32276	
4082	0	32810	32292	
4083	0	32800	32500	
4084	0	32788	32487	
4085	0	32864	32231	
4086	0	32834	32503	
4087	0	32780	32492	
4088	0	32824	32199	
4089	0	32868	32429	
4090	0	32780	32538	
4091	0	32748	32196	
4092	0	32782	32491	
4093	0	32836	32492	
4094	0	32836	32263	
4095	0	32828	32669	
4096	0	32844	32234	
4097	0	32854	32445	
4098	0	32826	32618	
4099	0	32796	32319	
4100	0	32792	32263	
4101	0	32759	32694	
4102	0	32744	32402	
4103	0	32850	32284	
4104	0	32785	32641	
4105	0	32742	32420	
4106	0	32724	32303	
4107	0	32744	32634	
4108	0	32780	32423	
4109	0	32852	32199	
4110	0	32780	32447	
4111	0	32756	32540	
4112	0	32812	32179	
4113	0	32856	32657	
4114	0	32828	32257	
4115	0	32790	32447	
4116	0	32754	32575	
4117	0	32772	32250	
4118	0	32748	32238	
4119	0	32748	32658	
4120	0	32820	32423	
4121	0	32757	32303	
4122	0	32776	32455	
4123	0	32808	32542	
4124	0	32820	32310	
4125	0	32812	32219	
4126	0	32772	32477	
4127	0	32826	32535	
4128	0	32782	32226	
4129	0	32822	32199	
4130	0	32828	32551	
4131	0	32768	32446	
4132	0	32840	32246	
4133	0	32700	32419	
4134	0	32792	32555	
4135	0	32740	32263	
4136	0	32740	32459	
4137	0	32768	32543	
4138	0	32864	32234	
4139	0	32847	32391	
4140	0	32788	32591	
4141	0	32756	32199	
4142	0	32804	32311	
4143	0	32772	32619	
4144	0	32800	32380	
4145	0	32846	32246	
4146	0	32818	32637	
4147	0	32724	32294	
4148	0	32824	32242	
4149	0	32756	32593	
4150	0	32756	32284	
4151	0	32794	32367	
4152	0	32832	32647	
4153	0	32848	32363	
4154	0	32760	32199	
4155	0	32782	32636	
4156	0	32820	32457	
4157	0	32752	32181	
4158	0	32764	32698	
4159	0	32705	32481	
4160	0	32804	32162	
4161	0	32864	32366	
4162	0	32796	32563	
4163	0	32814	32199	
4164	0	32810	32447	
4165	0	32868	32620	
4166	0	32754	32173	
4167	0	32798	32563	
4168	0	32832	32215	
4169	0	32920	32410	
4170	0	32796	32453	
4171	0	32760	32277	
4172	0	32852	32640	
4173	0	32796	32199	
4174	0	32808	32627	
4175	0	32842	32207	
4176	0	32796	32543	
4177	0	32858	32455	
4178	0	32800	32403	
4179	0	32838	32527	
4180	0	32794	32277	
4181	0	32828	32580	
4182	0	32728	32174	
4183	0	32812	32659	
4184	0	32780	32179	
4185	0	32830	32570	
4186	0	32850	32206	
4187	0	32782	32628	
4188	0	32756	32362	
4189	0	32812	32426	
4190	0	32801	32630	
4191	0	32788	32229	
4192	0	32812	32380	
4193	0	32840	32615	
4194	0	32806	32199	
4195	0	32780	32375	
4196	0	32780	32668	
4197	0	32770	32263	
4198	0	32815	32277	
4199	0	32756	32695	
4200	0	32852	32431	
4201	0	32820	32212	
4202	0	32808	32375	
4203	0	32774	32647	
4204	0	32764	32319	
4205	0	32828	32263	
4206	0	32768	32499	
4207	0	32754	32498	
4208	0	32836	32167	
4209	0	32762	32362	
4210	0	32780	32623	
4211	0	32824	32263	
4212	0	32843	32676	
4213	0	32762	32159	
4214	0	32762	32438	
4215	0	32805	32344	
4216	0	32748	32199	
4217	0	32744	32511	
4218	0	32868	32519	
4219	0	32856	32311	
4220	0	32832	32426	
4221	0	32820	32504	
4222	0	32759	32228	
4223	0	32794	32641	
4224	0	32703	32161	
4225	0	32832	32657	
4226	0	32830	32263	
4227	0	32804	32482	
4228	0	32836	32356	
4229	0	32774	32422	
4230	0	32872	32583	
4231	0	32788	32279	
4232	0	32749	32557	
4233	0	32797	32245	
4234	0	32775	32639	
4235	0	32772	32110	
4236	0	32822	32637	
4237	0	32788	32279	
4238	0	32730	32292	
4239	0	32866	32574	
4240	0	32777	32231	
4241	0	32748	32698	
4242	0	32804	32443	
4243	0	32782	32218	
4244	0	32840	32623	
4245	0	32828	32263	
4246	0	32828	32591	
4247	0	32724	32263	
4248	0	32716	32695	
4249	0	32776	32286	
4250	0	32738	32500	
4251	0	32778	32314	
4252	0	32712	32431	
4253	0	32772	32383	
4254	0	32632	32239	
4255	0	32688	32285	
4256	0	32704	32190	
4257	0	32836	32183	
4258	0	32814	32238	
4259	0	32900	32190	
4260	0	32879	32238	
4261	0	32864	32183	
4262	0	32854	32183	
4263	0	32674	32249	
4264	0	32648	32348	
4265	0	32676	32551	
4266	0	32640	32234	
4267	0	32664	32391	
4268	0	32664	32419	
4269	0	32706	32290	
4270	0	32634	32647	
4271	0	32718	32224	
4272	0	32730	32644	
4273	0	32762	32199	
4274	0	32704	32578	
4275	0	32816	32207	
4276	0	32828	32188	
4277	0	32836	32262	
4278	0	32786	32183	
4279	0	32868	32676	
4280	0	32864	32219	
4281	0	32832	32491	
4282	0	32972	32423	
4283	0	32928	32381	
4284	0	32887	32570	
4285	0	32986	32263	
4286	0	32960	32607	
4287	0	33004	32200	
4288	0	33102	32476	
4289	0	33120	32340	
4290	0	33066	32468	
4291	0	33052	32455	
4292	0	32988	32279	
4293	0	33010	32566	
4294	0	33004	32311	
4295	0	32832	32507	
4296	0	32880	32703	
4297	0	32780	32693	
4298	0	32632	32559	
4299	0	32592	32670	
4300	0	32630	32635	
4301	0	32672	32460	
4302	0	32684	32431	
4303	0	32696	32483	
4304	0	32860	32727	
4305	0	33004	32666	
4306	0	32968	32611	
4307	0	32872	32615	
4308	0	32900	32630	
4309	0	32860	32583	
4310	0	32930	32540	
4311	0	32780	32558	
4312	0	32882	32327	
4313	0	32776	32615	
4314	0	32742	32642	
4315	0	32702	32282	
4316	0	32712	32542	
4317	0	32660	32498	
4318	0	32758	32204	
4319	0	32652	32658	
4320	0	32668	32302	
4321	0	32717	32375	
4322	0	32724	32603	
4323	0	32798	32324	
4324	0	32816	32463	
4325	0	32744	32323	
4326	0	32668	32370	
4327	0	32680	32501	
4328	0	32692	32239	
4329	0	32758	32590	
4330	0	32796	32335	
4331	0	32734	32151	
4332	0	32772	32582	
4333	0	32872	32455	
4334	0	32758	32263	
4335	0	32780	32570	
4336	0	32808	32359	
4337	0	32794	32572	
4338	0	32816	32215	
4339	0	32868	32598	
4340	0	32900	32196	
4341	0	32888	32700	
4342	0	32966	32311	
4343	0	32880	32431	
4344	0	32884	32486	
4345	0	32934	32322	
4346	0	32942	32532	
4347	0	32816	32234	
4348	0	32820	32647	
4349	0	32704	32155	
4350	0	32840	32431	
4351	0	32820	32516	
4352	0	32760	32207	
4353	0	32700	32559	
4354	0	32808	32224	
4355	0	32735	32606	
4356	0	32796	32319	
4357	0	32732	32263	
4358	0	32810	32644	
4359	0	32780	32455	
4360	0	32801	32223	
4361	0	32728	32490	
4362	0	32767	32482	
4363	0	32788	32196	
4364	0	32716	32256	
4365	0	32788	32647	
4366	0	32760	32444	
4367	0	32784	32199	
4368	0	32836	32463	
4369	0	32749	32611	
4370	0	32744	32234	
4371	0	32767	32362	
4372	0	32766	32572	
4373	0	32620	32205	
4374	0	32704	32382	
4375	0	32732	32647	
4376	0	32720	32404	
4377	0	32632	32231	
4378	0	32672	32640	
4379	0	32606	32278	
4380	0	32602	32427	
4381	0	32501	32463	
4382	0	32568	32324	
4383	0	32448	32439	
4384	0	32470	32326	
4385	0	32364	32491	
4386	0	32600	32250	
4387	0	32556	32512	
4388	0	32556	32287	
4389	0	32437	32465	
4390	0	32404	32247	
4391	0	32452	32532	
4392	0	32286	32348	
4393	0	32496	32557	
4394	0	32548	32231	
4395	0	32738	32478	
4396	0	32780	32294	
4397	0	32856	32534	
4398	0	32912	32263	
4399	0	33002	32487	
4400	0	33136	32391	
4401	0	33456	32263	
4402	0	33804	32643	
4403	0	34064	32238	
4404	0	33836	32658	
4405	0	33764	32148	
4406	0	33716	32615	
4407	0	33508	32156	
4408	0	33370	32113	
4409	0	33272	32127	
4410	0	33490	32190	
4411	0	33473	32198	
4412	0	33250	32199	
4413	0	33260	32291	
4414	0	32994	32411	
4415	0	32908	32410	
4416	0	33022	32437	
4417	0	33648	32676	
4418	0	33978	32631	
4419	0	34170	32612	
4420	0	34324	32626	
4421	0	34160	32548	
4422	0	33856	32431	
4423	0	33512	32260	
4424	0	33228	32189	
4425	0	32648	32303	
4426	0	32402	32332	
4427	0	31912	32377	
4428	0	31354	32429	
4429	0	31170	32598	
4430	0	31076	32302	
4431	0	30990	32476	
4432	0	31001	32313	
4433	0	30944	32391	
4434	0	31100	32407	
4435	0	31429	32332	
4436	0	31495	32462	
4437	0	31656	32252	
4438	0	31840	32607	
4439	0	32076	32228	
4440	0	32216	32316	
4441	0	32418	32516	
4442	0	32626	32151	
4443	0	32796	32714	
4444	0	32942	32263	
4445	0	33112	32356	
4446	0	33228	32471	
4447	0	33318	32215	
4448	0	33280	32455	
4449	0	33295	32506	
4450	0	33256	32177	
4451	0	33240	32684	
4452	0	33226	32181	
4453	0	33112	32374	
4454	0	33103	32482	
4455	0	33039	32203	
4456	0	32970	32630	
4457	0	33000	32406	
4458	0	33013	32222	
4459	0	32961	32528	
4460	0	32896	32598	
4461	0	32860	32135	
4462	0	32910	32455	
4463	0	32881	32572	
4464	0	32832	32151	
4465	0	32834	32404	
4466	0	32832	32626	
4467	0	32796	32332	
4468	0	32860	32351	
4469	0	32820	32775	
4470	0	32856	32415	
4471	0	32817	32223	
4472	0	32792	32495	
4473	0	32776	32551	
4474	0	32820	32207	
4475	0	32828	32700	
4476	0	32774	32229	
4477	0	32712	32452	
4478	0	32728	32361	
4479	0	32800	32295	
4480	0	32810	32228	
4481	0	32820	32206	
4482	0	32814	32191	
4483	0	32776	32207	
4484	0	32852	32358	
4485	0	32852	32343	
4486	0	32836	32452	
4487	0	32800	32647	
4488	0	32834	32647	
4489	0	32840	32742	
4490	0	32876	32624	
4491	0	32806	32607	
4492	0	32796	32495	
4493	0	32800	32427	
4494	0	32724	32233	
4495	0	32704	32717	
4496	0	32748	32196	
4497	0	32770	32570	
4498	0	32772	32229	
4499	0	32812	32570	
4500	0	32828	32186	
4501	0	32908	32375	
4502	0	32864	32615	
4503	0	32852	32303	
4504	0	32844	32542	
4505	0	32736	32100	
4506	0	32800	32668	
4507	0	32862	32282	
4508	0	32798	32491	
4509	0	32860	32335	
4510	0	32808	32403	
4511	0	32750	32508	
4512	0	32768	32295	
4513	0	32788	32572	
4514	0	32780	32256	
4515	0	32732	32671	
4516	0	32832	32256	
4517	0	32808	32659	
4518	0	32684	32255	
4519	0	32820	32684	
4520	0	32830	32171	
4521	0	32826	32615	
4522	0	32838	32220	
4523	0	32788	32591	
4524	0	32844	32351	
4525	0	32848	32431	
4526	0	32784	32303	
4527	0	32798	32676	
4528	0	32822	32319	
4529	0	32788	32451	
4530	0	32903	32316	
4531	0	32790	32488	
4532	0	32826	32188	
4533	0	32808	32656	
4534	0	32798	32204	
4535	0	32834	32630	
4536	0	32748	32311	
4537	0	32832	32319	
4538	0	32798	32259	
4539	0	32775	32148	
4540	0	32888	32244	
4541	0	32772	32226	
4542	0	32808	32231	
4543	0	32812	32209	
4544	0	32790	32164	
4545	0	32721	32252	
4546	0	32764	32598	
4547	0	32800	32287	
4548	0	32864	32564	
4549	0	32854	32317	
4550	0	32824	32628	
4551	0	32840	32181	
4552	0	32839	32719	
4553	0	32761	32190	
4554	0	32830	32615	
4555	0	32826	32263	
4556	0	32826	32662	
4557	0	32756	32239	
4558	0	32767	32612	
4559	0	32694	32330	
4560	0	32802	32423	
4561	0	32852	32471	
4562	0	32840	32375	
4563	0	32772	32626	
4564	0	32791	32202	
4565	0	32792	32647	
4566	0	32796	32263	
4567	0	32817	32708	
4568	0	32764	32234	
4569	0	32746	32402	
4570	0	32768	32407	
4571	0	32836	32415	
4572	0	32796	32412	
4573	0	32766	32380	
4574	0	32800	32411	
4575	0	32772	32431	
4576	0	32832	32426	
4577	0	32790	32322	
4578	0	32780	32565	
4579	0	32812	32135	
4580	0	32860	32618	
4581	0	32900	32263	
4582	0	32734	32609	
4583	0	32822	32262	
4584	0	32748	32519	
4585	0	32800	32311	
4586	0	32877	32582	
4587	0	32828	32216	
4588	0	32910	32463	
4589	0	32788	32541	
4590	0	32838	32263	
4591	0	32828	32663	
4592	0	32824	32283	
4593	0	32872	32635	
4594	0	32812	32258	
4595	0	32724	32566	
4596	0	32860	32229	
4597	0	32796	32646	
4598	0	32810	32296	
4599	0	32868	32341	
4600	0	32828	32199	
4601	0	32748	32185	
4602	0	32836	32366	
4603	0	32796	32428	
4604	0	32800	32420	
4605	0	32798	32572	
4606	0	32836	32711	
4607	0	32784	32577	
4608	0	32784	32614	
4609	0	32824	32495	
4610	0	32820	32327	
4611	0	32828	32215	
4612	0	32832	32213	
4613	0	32836	32219	
4614	0	32775	32158	
4615	0	32804	32250	
4616	0	32836	32232	
4617	0	32848	32251	
4618	0	32844	32196	
4619	0	32812	32239	
4620	0	32836	32174	
4621	0	32776	32231	
4622	0	32804	32167	
4623	0	32820	32169	
4624	0	32806	32208	
4625	0	32848	32321	
4626	0	32772	32369	
4627	0	32730	32427	
4628	0	32752	32263	
4629	0	32836	32414	
4630	0	32828	32407	
4631	0	32788	32354	
4632	0	32698	32566	
4633	0	32748	32657	
4634	0	32823	32583	
4635	0	32716	32502	
4636	0	32730	32348	
4637	0	32804	32167	
4638	0	32788	32207	
4639	0	32825	32345	
4640	0	32796	32615	
4641	0	32750	32620	
4642	0	32780	32427	
4643	0	32804	32316	
4644	0	32748	32215	
4645	0	32788	32170	
4646	0	32800	32388	
4647	0	32836	32299	
4648	0	32748	32670	
4649	0	32726	32252	
4650	0	32730	32376	
4651	0	32816	32573	
4652	0	32718	32247	
4653	0	32804	32621	
4654	0	32767	32212	
4655	0	32822	32638	
4656	0	32772	32196	
4657	0	32780	32583	
4658	0	32772	32227	
4659	0	32784	32556	
4660	0	32816	32247	
4661	0	32756	32654	
4662	0	32820	32148	
4663	0	32700	32612	
4664	0	32783	32195	
4665	0	32774	32607	
4666	0	32816	32231	
4667	0	32822	32492	
4668	0	32820	32442	
4669	0	32775	32211	
4670	0	32753	32319	
4671	0	32791	32463	
4672	0	32846	32599	
4673	0	32812	32711	
4674	0	32798	32615	
4675	0	32825	32623	
4676	0	32740	32663	
4677	0	32768	32695	
4678	0	32796	32618	
4679	0	32782	32665	
4680	0	32790	32583	
4681	0	32768	32639	
4682	0	32798	32661	
4683	0	32900	32647	
4684	0	32836	32628	
4685	0	32849	32682	
4686	0	32794	32543	
4687	0	32788	32343	
4688	0	32812	32231	
4689	0	32874	32182	
4690	0	32816	32263	
4691	0	32846	32263	
4692	0	32874	32482	
4693	0	32870	32407	
4694	0	32840	32279	
4695	0	32832	32263	
4696	0	32790	32239	
4697	0	32844	32655	
4698	0	32784	32223	
4699	0	32788	32618	
4700	0	32828	32263	
4701	0	32796	32430	
4702	0	32800	32433	
4703	0	32800	32444	
4704	0	32775	32371	
4705	0	32830	32491	
4706	0	32798	32536	
4707	0	32804	32231	
4708	0	32854	32439	
4709	0	32780	32479	
4710	0	32820	32335	
4711	0	32774	32460	
4712	0	32800	32452	
4713	0	32832	32345	
4714	0	32862	32471	
4715	0	32825	32299	
4716	0	32821	32632	
4717	0	32816	32230	
4718	0	32742	32634	
4719	0	32744	32151	
4720	0	32748	32509	
4721	0	32856	32367	
4722	0	32834	32229	
4723	0	32788	32622	
4724	0	32850	32151	
4725	0	32784	32511	
4726	0	32852	32406	
4727	0	32742	32578	
4728	0	32740	32664	
4729	0	32760	32642	
4730	0	32810	32725	
4731	0	32769	32559	
4732	0	32844	32668	
4733	0	32796	32185	
4734	0	32772	32719	
4735	0	32834	32295	
4736	0	32868	32391	
4737	0	32772	32495	
4738	0	32748	32303	
4739	0	32798	32660	
4740	0	32835	32166	
4741	0	32756	32461	
4742	0	32800	32196	
4743	0	32813	32711	
4744	0	32806	32286	
4745	0	32863	32462	
4746	0	32796	32646	
4747	0	32784	32403	
4748	0	32746	32327	
4749	0	32796	32546	
4750	0	32808	32218	
4751	0	32740	32625	
4752	0	32812	32287	
4753	0	32740	32700	
4754	0	32852	32134	
4755	0	32844	32670	
4756	0	32804	32233	
4757	0	32752	32423	
4758	0	32800	32423	
4759	0	32820	32186	
4760	0	32804	32639	
4761	0	32878	32218	
4762	0	32692	32438	
4763	0	32784	32298	
4764	0	32806	32399	
4765	0	32792	32541	
4766	0	32820	32183	
4767	0	32834	32580	
4768	0	32802	32706	
4769	0	32911	32317	
4770	0	32772	32473	
4771	0	32832	32507	
4772	0	32794	32246	
4773	0	32820	32682	
4774	0	32792	32519	
4775	0	32844	32298	
4776	0	32766	32463	
4777	0	32844	32495	
4778	0	32794	32244	
4779	0	32775	32591	
4780	0	32774	32468	
4781	0	32742	32134	
4782	0	32794	32481	
4783	0	32840	32647	
4784	0	32736	32370	
4785	0	32732	32258	
4786	0	32808	32660	
4787	0	32798	32263	
4788	0	32828	32375	
4789	0	32860	32686	
4790	0	32844	32455	
4791	0	32862	32285	
4792	0	32820	32535	
4793	0	32830	32397	
4794	0	32881	32487	
4795	0	32908	32417	
4796	0	32794	32351	
4797	0	32756	32317	
4798	0	32684	32286	
4799	0	32716	32311	
4800	0	32746	32452	
4801	0	32808	32358	
4802	0	32760	32647	
4803	0	32880	32405	
4804	0	32836	32295	
4805	0	32856	32647	
4806	0	32790	32231	
4807	0	32791	32655	
4808	0	32852	32335	
4809	0	32848	32431	
4810	0	32820	32566	
4811	0	32746	32234	
4812	0	32780	32679	
4813	0	32720	32166	
4814	0	32764	32486	
4815	0	32866	32407	
4816	0	32834	32327	
4817	0	32836	32580	
4818	0	32842	32231	
4819	0	32844	32659	
4820	0	32822	32319	
4821	0	32740	32284	
4822	0	32784	32599	
4823	0	32758	32160	
4824	0	32753	32612	
4825	0	32761	32295	
4826	0	32820	32231	
4827	0	32784	32585	
4828	0	32849	32214	
4829	0	32864	32618	
4830	0	32732	32342	
4831	0	32792	32453	
4832	0	32820	32479	
4833	0	32902	32222	
4834	0	32816	32548	
4835	0	32808	32582	
4836	0	32836	32222	
4837	0	32716	32726	
4838	0	32800	32279	
4839	0	32784	32499	
4840	0	32772	32255	
4841	0	32812	32444	
4842	0	32808	32431	
4843	0	32796	32359	
4844	0	32876	32594	
4845	0	32881	32175	
4846	0	32864	32563	
4847	0	32696	32344	
4848	0	32752	32316	
4849	0	32782	32527	
4850	0	32830	32220	
4851	0	32772	32647	
4852	0	32852	32644	
4853	0	32836	32583	
4854	0	32780	32709	
4855	0	32710	32622	
4856	0	32784	32422	
4857	0	32750	32300	
4858	0	32832	32231	
4859	0	32728	32183	
4860	0	32784	32263	
4861	0	32826	32263	
4862	0	32792	32199	
4863	0	32795	32226	
4864	0	32846	32195	
4865	0	32834	32213	
4866	0	32775	32111	
4867	0	32848	32251	
4868	0	32838	32455	
4869	0	32826	32484	
4870	0	32758	32423	
4871	0	32780	32519	
4872	0	32748	32567	
4873	0	32756	32566	
4874	0	32816	32586	
4875	0	32780	32583	
4876	0	32788	32471	
4877	0	32788	32356	
4878	0	32806	32215	
4879	0	32767	32391	
4880	0	32824	32570	
4881	0	32808	32647	
4882	0	32840	32599	
4883	0	32774	32413	
4884	0	32756	32263	
4885	0	32808	32246	
4886	0	32744	32154	
4887	0	32760	32570	
4888	0	32780	32635	
4889	0	32800	32373	
4890	0	32776	32454	
4891	0	32922	32583	
4892	0	32836	32206	
4893	0	32792	32611	
4894	0	32846	32244	
4895	0	32834	32510	
4896	0	32766	32407	
4897	0	32772	32231	
4898	0	32778	32564	
4899	0	32800	32152	
4900	0	32724	32487	
4901	0	32756	32437	
4902	0	32728	32289	
4903	0	32732	32610	
4904	0	32796	32247	
4905	0	32864	32460	
4906	0	32876	32503	
4907	0	32868	32242	
4908	0	32844	32492	
4909	0	32884	32282	
4910	0	32828	32703	
4911	0	32839	32262	
4912	0	32838	32756	
4913	0	32730	32341	
4914	0	32744	32487	
4915	0	32774	32839	
4916	0	32788	32569	
4917	0	32879	32825	
4918	0	32792	33401	
4919	0	32834	33468	
4920	0	32822	34102	
4921	0	32784	35446	
4922	0	32876	37180	
4923	0	32996	40486	
4924	0	33408	49116	
4925	0	32752	48020	
4926	0	32696	34248	
4927	0	32626	23674	
4928	0	32668	12812	
4929	0	32688	2419	
4930	0	32886	6124	
4931	0	32836	44752	
4932	0	32764	63044	
4933	0	32908	59900	
4934	0	33456	14017	
4935	0	45352	41502	
4936	0	22884	55668	
4937	0	27112	53908	
4938	0	30154	51318	
4939	0	32112	48564	
4940	0	33156	46876	
4941	0	33756	44775	
4942	0	34017	42948	
4943	0	34122	41692	
4944	0	34108	17928	
4945	0	34036	500	
4946	0	33762	32	
4947	0	33680	29	
4948	0	33568	1892	
4949	0	33428	6466	
4950	0	33258	10292	
4951	0	33164	13378	
4952	0	33176	16010	
4953	0	33152	18126	
4954	0	32998	20039	
4955	0	32938	21748	
4956	0	32906	23055	
4957	0	32900	24423	
4958	0	32838	25430	
4959	0	32767	26395	
4960	0	32812	27284	
4961	0	32646	28010	
4962	0	32532	28543	
4963	0	32426	29191	
4964	0	32414	29447	
4965	0	32504	30020	
4966	0	32484	30109	
4967	0	32456	30591	
4968	0	32583	30641	
4969	0	32724	31038	
4970	0	32892	30980	
4971	0	32918	31463	
4972	0	33016	31231	
4973	0	32943	34140	
4974	0	32862	34943	
4975	0	32828	34902	
4976	0	32772	35295	
4977	0	32772	34967	
4978	0	32724	34977	
4979	0	32786	35285	
4980	0	32750	35014	
4981	0	32732	35085	
4982	0	32736	35335	
4983	0	32718	35046	
4984	0	32764	35079	
4985	0	32696	35218	
4986	0	32720	35033	
4987	0	32780	35097	
4988	0	32746	35332	
4989	0	32772	34980	
4990	0	32764	34947	
4991	0	32734	35060	
4992	0	32820	34787	
4993	0	32752	34790	
4994	0	32676	34110	
4995	0	32824	33607	
4996	0	32804	33375	
4997	0	32706	31831	
4998	0	32764	31359	
4999	0	32708	30788	
5000	0	32722	30119	
5001	0	32768	30079	
5002	0	32788	30126	
5003	0	32804	30683	
5004	0	32744	30587	
5005	0	32804	32239	
5006	0	32856	33900	
5007	0	32884	36684	
5008	0	32924	39142	
5009	0	32784	40764	
5010	0	32776	42112	
5011	0	32896	42846	
5012	0	32888	44084	
5013	0	32910	42988	
5014	0	32820	43116	
5015	0	32856	42704	
5016	0	32810	43860	
5017	0	32774	45472	
5018	0	32825	46992	
5019	0	32728	46250	
5020	0	32804	45111	
5021	0	32734	43412	
5022	0	32892	41085	
5023	0	32804	40252	
5024	0	32790	39716	
5025	0	32784	41526	
5026	0	32792	36868	
5027	0	32834	31583	
5028	0	32788	28838	
5029	0	32872	26744	
5030	0	32800	25511	
5031	0	32804	25034	
5032	0	32776	25028	
5033	0	32788	25129	
5034	0	32796	25742	
5035	0	32791	26328	
5036	0	32844	26964	
5037	0	32812	27647	
5038	0	32778	28255	
5039	0	32712	28934	
5040	0	32744	29542	
5041	0	32737	30054	
5042	0	32726	31075	
5043	0	32758	31310	
5044	0	32818	32156	
5045	0	32856	31975	
5046	0	32808	32148	
5047	0	32804	31900	
5048	0	32732	31948	
5049	0	32744	31877	
5050	0	32654	31938	
5051	0	32564	31862	
5052	0	32616	32164	
5053	0	32721	32373	
5054	0	32748	32443	
5055	0	32716	32615	
5056	0	32802	32947	
5057	0	32772	33012	
5058	0	32620	33287	
5059	0	32280	33756	
5060	0	31420	33570	
5061	0	30262	34005	
5062	0	30118	33785	
5063	0	30476	33991	
5064	0	30737	33682	
5065	0	31070	33863	
5066	0	31700	33229	
5067	0	32653	33490	
5068	0	32996	32927	
5069	0	33748	33150	
5070	0	34404	32628	
5071	0	34792	32647	
5072	0	35268	32785	
5073	0	35374	32414	
5074	0	35420	32639	
5075	0	35308	32732	
5076	0	35156	32446	
5077	0	35340	32878	
5078	0	35708	32775	
5079	0	35604	32538	
5080	0	35144	32826	
5081	0	34376	32455	
5082	0	33561	32620	
5083	0	33095	32663	
5084	0	32464	32605	
5085	0	32236	32887	
5086	0	32036	32405	
5087	0	31854	32827	
5088	0	31830	32412	
5089	0	31754	32644	
5090	0	31774	32364	
5091	0	31693	32740	
5092	0	31572	32357	
5093	0	31636	32806	
5094	0	31860	32447	
5095	0	31884	32839	
5096	0	32120	32391	
5097	0	32228	32850	
5098	0	32354	32308	
5099	0	32376	32805	
5100	0	32564	32420	
5101	0	32756	32693	
5102	0	32896	32635	
5103	0	32854	32511	
5104	0	32678	32684	
5105	0	32612	32557	
5106	0	32568	32674	
5107	0	32418	32628	
5108	0	32440	32503	
5109	0	32468	32687	
5110	0	32560	32349	
5111	0	32500	32821	
5112	0	32514	32355	
5113	0	32513	32766	
5114	0	32580	32447	
5115	0	32642	32775	
5116	0	32735	32381	
5117	0	32722	32874	
5118	0	32804	32455	
5119	0	32902	32927	
5120	0	32823	32574	
5121	0	32848	32989	
5122	0	32900	32454	
5123	0	32806	32912	
5124	0	32898	32477	
5125	0	32846	32942	
5126	0	32839	32554	
5127	0	32940	32664	
5128	0	32832	32748	
5129	0	32866	32597	
5130	0	32922	32775	
5131	0	32937	32533	
5132	0	32952	32519	
5133	0	32911	32519	
5134	0	32852	32663	
5135	0	32840	32365	
5136	0	32930	32631	
5137	0	32912	32378	
5138	0	32920	32426	
5139	0	32856	32391	
5140	0	32870	32415	
5141	0	32789	32332	
5142	0	32758	32263	
5143	0	32898	32327	
5144	0	32772	32046	
5145	0	32760	32511	
5146	0	32720	31995	
5147	0	32820	32126	
5148	0	32884	32234	
5149	0	32814	32420	
5150	0	32792	32652	
5151	0	32878	32618	
5152	0	32740	32663	
5153	0	32772	32715	
5154	0	32728	32700	
5155	0	32757	32673	
5156	0	32762	32642	
5157	0	32820	32597	
5158	0	32806	32532	
5159	0	32782	32519	
5160	0	32760	32490	
5161	0	32676	32551	
5162	0	32768	32571	
5163	0	32600	32590	
5164	0	32592	32612	
5165	0	32604	32602	
5166	0	32544	32663	
5167	0	32466	32766	
5168	0	32376	32772	
5169	0	32524	32935	
5170	0	32496	32900	
5171	0	32440	32807	
5172	0	32432	32818	
5173	0	32456	32790	
5174	0	32576	32582	
5175	0	32508	32519	
5176	0	32452	32463	
5177	0	32402	32638	
5178	0	32468	32667	
5179	0	32452	32479	
5180	0	32438	32426	
5181	0	32484	32308	
5182	0	32688	32242	
5183	0	32860	32354	
5184	0	32872	32245	
5185	0	32874	32263	
5186	0	33104	32316	
5187	0	33260	32412	
5188	0	33400	32564	
5189	0	33856	32662	
5190	0	34100	32775	
5191	0	34112	32534	
5192	0	33992	32494	
5193	0	33976	32558	
5194	0	33828	32652	
5195	0	33536	32354	
5196	0	33264	32607	
5197	0	33446	32339	
5198	0	33494	32366	
5199	0	33284	32518	
5200	0	33218	32334	
5201	0	32940	32775	
5202	0	32872	32515	
5203	0	32840	32915	
5204	0	33116	32449	
5205	0	33764	32417	
5206	0	34076	32223	
5207	0	34143	32138	
5208	0	34032	32534	
5209	0	33952	32244	
5210	0	33583	32213	
5211	0	33216	32335	
5212	0	32750	31972	
5213	0	32338	32422	
5214	0	32100	31956	
5215	0	31646	32433	
5216	0	31214	32615	
5217	0	31024	32414	
5218	0	30876	32647	
5219	0	30814	32726	
5220	0	30780	32358	
5221	0	30854	32599	
5222	0	31016	32533	
5223	0	31270	32398	
5224	0	31518	32772	
5225	0	31674	32348	
5226	0	31900	32679	
5227	0	32052	32303	
5228	0	32198	32500	
5229	0	32432	32647	
5230	0	32702	32238	
5231	0	32920	32334	
5232	0	33108	32615	
5233	0	33368	32213	
5234	0	33416	32636	
5235	0	33462	32172	
5236	0	33462	32590	
5237	0	33448	32135	
5238	0	33392	32548	
5239	0	33246	32295	
5240	0	33164	32353	
5241	0	33128	32589	
5242	0	33150	32276	
5243	0	33194	32612	
5244	0	33044	32187	
5245	0	33024	32703	
5246	0	32896	32386	
5247	0	32972	32556	
5248	0	32958	32436	
5249	0	32940	32435	
5250	0	32892	32474	
5251	0	32858	32359	
5252	0	32884	32701	
5253	0	32860	32309	
5254	0	32870	32719	
5255	0	32876	32218	
5256	0	32818	32711	
5257	0	32836	32298	
5258	0	32777	32500	
5259	0	32804	32596	
5260	0	32836	32302	
5261	0	32836	32654	
5262	0	32796	32318	
5263	0	32812	32708	
5264	0	32750	32391	
5265	0	32805	32351	
5266	0	32924	32667	
5267	0	32888	32388	
5268	0	32784	32594	
5269	0	32742	32678	
5270	0	32866	32361	
5271	0	32764	32775	
5272	0	32762	32486	
5273	0	32700	32568	
5274	0	32860	32597	
5275	0	32893	32332	
5276	0	32776	32711	
5277	0	32866	32199	
5278	0	32734	32588	
5279	0	32836	32282	
5280	0	32926	32444	
5281	0	32788	32295	
5282	0	32784	32474	
5283	0	32876	32227	
5284	0	32865	32473	
5285	0	32912	32247	
5286	0	32820	32439	
5287	0	32860	32250	
5288	0	32808	32775	
5289	0	32756	32148	
5290	0	32697	32525	
5291	0	32732	32367	
5292	0	32748	32367	
5293	0	32708	32475	
5294	0	32774	32181	
5295	0	32746	32588	
5296	0	32824	32263	
5297	0	32896	32458	
5298	0	32820	32452	
5299	0	32916	32246	
5300	0	32780	32519	
5301	0	32796	32235	
5302	0	32750	32583	
5303	0	32756	32235	
5304	0	32808	32307	
5305	0	32820	32642	
5306	0	32788	32175	
5307	0	32780	32640	
5308	0	32780	32247	
5309	0	32794	32711	
5310	0	32846	32263	
5311	0	32816	32678	
5312	0	32788	32251	
5313	0	32842	32710	
5314	0	32832	32280	
5315	0	32857	32726	
5316	0	32863	32463	
5317	0	32748	32763	
5318	0	32724	32221	
5319	0	32718	32738	
5320	0	32752	32447	
5321	0	32734	32255	
5322	0	32802	32647	
5323	0	32772	32348	
5324	0	32854	32453	
5325	0	32892	32295	
5326	0	32832	32278	
5327	0	32836	32647	
5328	0	32792	32351	
5329	0	32740	32343	
5330	0	32732	32615	
5331	0	32826	32164	
5332	0	32804	32595	
5333	0	32778	32238	
5334	0	32826	32327	
5335	0	32770	32538	
5336	0	32818	32282	
5337	0	32844	32746	
5338	0	32772	32228	
5339	0	32720	32430	
5340	0	32804	32655	
5341	0	32784	32211	
5342	0	32800	32682	
5343	0	32728	32334	
5344	0	32801	32403	
5345	0	32766	32635	
5346	0	32910	32286	
5347	0	32814	32343	
5348	0	32785	32555	
5349	0	32812	32244	
5350	0	32744	32431	
5351	0	32788	32535	
5352	0	32728	32231	
5353	0	32652	32755	
5354	0	32692	32199	
5355	0	32804	32428	
5356	0	32810	32391	
5357	0	32868	32327	
5358	0	32904	32690	
5359	0	32924	32391	
5360	0	32956	32293	
5361	0	32960	32709	
5362	0	32966	32490	
5363	0	32944	32351	
5364	0	32920	32484	
5365	0	32900	32342	
5366	0	32872	32604	
5367	0	32880	32316	
5368	0	32828	32572	
5369	0	32708	32282	
5370	0	32720	32638	
5371	0	32680	32255	
5372	0	32750	32622	
5373	0	32678	32226	
5374	0	32780	32673	
5375	0	32824	32280	
5376	0	32800	32480	
5377	0	32804	32425	
5378	0	32816	32287	
5379	0	32743	32687	
5380	0	32840	32357	
5381	0	32774	32280	
5382	0	32832	32673	
5383	0	32794	32554	
5384	0	32772	32175	
5385	0	32692	32462	
5386	0	32758	32556	
5387	0	32628	32235	
5388	0	32708	32596	
5389	0	32788	32502	
5390	0	32868	32455	
5391	0	32820	32415	
5392	0	32836	32543	
5393	0	32799	32491	
5394	0	32860	32429	
5395	0	32832	32511	
5396	0	32864	32537	
5397	0	32848	32532	
5398	0	32801	32655	
5399	0	32832	32559	
5400	0	32900	32700	
5401	0	32852	32702	
5402	0	32824	32707	
5403	0	32808	32703	
5404	0	32728	32606	
5405	0	32772	32580	
5406	0	32750	32487	
5407	0	32732	32494	
5408	0	32757	32295	
5409	0	32816	32340	
5410	0	32804	32327	
5411	0	32692	32234	
5412	0	32768	32218	
5413	0	32820	32294	
5414	0	32800	32542	
5415	0	32824	32263	
5416	0	32740	32463	
5417	0	32808	32223	
5418	0	32858	32530	
5419	0	32774	32327	
5420	0	32728	32475	
5421	0	32768	32452	
5422	0	32764	32323	
5423	0	32808	32495	
5424	0	32812	32342	
5425	0	32803	32658	
5426	0	32828	32194	
5427	0	32868	32388	
5428	0	32924	32647	
5429	0	32772	32214	
5430	0	32766	32506	
5431	0	32775	32358	
5432	0	32884	32322	
5433	0	32774	32679	
5434	0	32812	32215	
5435	0	32748	32428	
5436	0	32706	32460	
5437	0	32748	32326	
5438	0	32772	32591	
5439	0	32788	32164	
5440	0	32804	32519	
5441	0	32785	32615	
5442	0	32776	32639	
5443	0	32792	32291	
5444	0	32812	32367	
5445	0	32812	32551	
5446	0	32780	32182	
5447	0	32804	32479	
5448	0	32786	32551	
5449	0	32853	32135	
5450	0	32806	32654	
5451	0	32732	32282	
5452	0	32740	32263	
5453	0	32760	32463	
5454	0	32796	32487	
5455	0	32756	32236	
5456	0	32812	32612	
5457	0	32824	32291	
5458	0	32860	32634	
5459	0	32880	32222	
5460	0	32860	32668	
5461	0	32816	32282	
5462	0	32780	32439	
5463	0	32734	32559	
5464	0	32796	32233	
5465	0	32732	32230	
5466	0	32840	32743	
5467	0	32772	32631	
5468	0	32820	32490	
5469	0	32782	32234	
5470	0	32780	32580	
5471	0	32762	32167	
5472	0	32798	32647	
5473	0	32804	32470	
5474	0	32816	32398	
5475	0	32792	32487	
5476	0	32764	32312	
5477	0	32776	32613	
5478	0	32816	32255	
5479	0	32770	32695	
5480	0	32831	32548	
5481	0	32778	32220	
5482	0	32750	32374	
5483	0	32814	32598	
5484	0	32849	32180	
5485	0	32904	32452	
5486	0	32864	32598	
5487	0	32782	32263	
5488	0	32800	32663	
5489	0	32728	32325	
5490	0	32852	32263	
5491	0	32807	32574	
5492	0	32780	32454	
5493	0	32838	32286	
5494	0	32852	32623	
5495	0	32844	32487	
5496	0	32832	32238	
5497	0	32796	32469	
5498	0	32868	32583	
5499	0	32830	32340	
5500	0	32792	32349	
5501	0	32822	32421	
5502	0	32752	32375	
5503	0	32847	32455	
5504	0	32794	32367	
5505	0	32742	32468	
5506	0	32796	32436	
5507	0	32857	32605	
5508	0	32872	32310	
5509	0	32770	32572	
5510	0	32840	32263	
5511	0	32836	32572	
5512	0	32804	32145	
5513	0	32720	32615	
5514	0	32782	32237	
5515	0	32838	32647	
5516	0	32804	32228	
5517	0	32772	32602	
5518	0	32766	32327	
5519	0	32788	32535	
5520	0	32775	32327	
5521	0	32832	32583	
5522	0	32868	32343	
5523	0	32864	32478	
5524	0	32800	32340	
5525	0	32816	32618	
5526	0	32796	32199	
5527	0	32852	32594	
5528	0	32808	32167	
5529	0	32738	32628	
5530	0	32728	32151	
5531	0	32814	32703	
5532	0	32832	32244	
5533	0	32814	32594	
5534	0	32759	32231	
5535	0	32764	32671	
5536	0	32792	32262	
5537	0	32845	32692	
5538	0	32876	32295	
5539	0	32752	32670	
5540	0	32852	32199	
5541	0	32814	32583	
5542	0	32814	32239	
5543	0	32840	32660	
5544	0	32756	32551	
5545	0	32736	32623	
5546	0	32732	32569	
5547	0	32724	32150	
5548	0	32792	32463	
5549	0	32840	32385	
5550	0	32836	32519	
5551	0	32844	32255	
5552	0	32756	32535	
5553	0	32856	32296	
5554	0	32784	32575	
5555	0	32782	32340	
5556	0	32784	32639	
5557	0	32868	32487	
5558	0	32784	32446	
5559	0	32804	32447	
5560	0	32860	32445	
5561	0	32854	32263	
5562	0	32876	32191	
5563	0	32788	32151	
5564	0	32808	32212	
5565	0	32756	32644	
5566	0	32868	32167	
5567	0	32830	32555	
5568	0	32732	32311	
5569	0	32801	32427	
5570	0	32724	32519	
5571	0	32748	32223	
5572	0	32788	32623	
5573	0	32772	32188	
5574	0	32824	32482	
5575	0	32812	32591	
5576	0	32796	32148	
5577	0	32730	32483	
5578	0	32768	32455	
5579	0	32824	32324	
5580	0	32785	32636	
5581	0	32774	32257	
5582	0	32858	32694	
5583	0	32832	32199	
5584	0	32834	32399	
5585	0	32836	32641	
5586	0	32752	32170	
5587	0	32800	32508	
5588	0	32756	32410	
5589	0	32800	32322	
5590	0	32750	32582	
5591	0	32808	32175	
5592	0	32804	32615	
5593	0	32810	32238	
5594	0	32814	32415	
5595	0	32836	32490	
5596	0	32840	32298	
5597	0	32873	32594	
5598	0	32776	32263	
5599	0	32812	32501	
5600	0	32856	32500	
5601	0	32790	32407	
5602	0	32804	32566	
5603	0	32744	32262	
5604	0	32868	32575	
5605	0	32852	32283	
5606	0	32822	32567	
5607	0	32814	32318	
5608	0	32780	32642	
5609	0	32824	32327	
5610	0	32812	32581	
5611	0	32848	32367	
5612	0	32752	32465	
5613	0	32794	32330	
5614	0	32820	32495	
5615	0	32770	32339	
5616	0	32832	32507	
5617	0	32868	32323	
5618	0	32746	32613	
5619	0	32808	32205	
5620	0	32801	32461	
5621	0	32752	32559	
5622	0	32734	32219	
5623	0	32834	32379	
5624	0	32792	32714	
5625	0	32814	32327	
5626	0	32806	32222	
5627	0	32898	32582	
5628	0	32828	32278	
5629	0	32892	32398	
5630	0	32850	32703	
5631	0	32836	32237	
5632	0	32780	32462	
5633	0	32734	32462	
5634	0	32797	32263	
5635	0	32874	32577	
5636	0	32820	32238	
5637	0	32774	32684	
5638	0	32780	32196	
5639	0	32828	32430	
5640	0	32822	32550	
5641	0	32728	32211	
5642	0	32712	32590	
5643	0	32840	32263	
5644	0	32796	32679	
5645	0	32826	32380	
5646	0	32836	32285	
5647	0	32782	32687	
5648	0	32761	32180	
5649	0	32762	32631	
5650	0	32764	32193	
5651	0	32759	32615	
5652	0	32800	32206	
5653	0	32839	32447	
5654	0	32862	32519	
5655	0	32900	32262	
5656	0	32876	32702	
5657	0	32745	32295	
5658	0	32720	32369	
5659	0	32770	32482	
5660	0	32760	32161	
5661	0	32824	32615	
5662	0	32828	32308	
5663	0	32756	32516	
5664	0	32816	32353	
5665	0	32784	32511	
5666	0	32785	32302	
5667	0	32796	32479	
5668	0	32760	32356	
5669	0	32848	32423	
5670	0	32848	32443	
5671	0	32812	32412	
5672	0	32804	32442	
5673	0	32888	32603	
5674	0	32848	32565	
5675	0	32760	32519	
5676	0	32780	32494	
5677	0	32850	32507	
5678	0	32865	32559	
5679	0	32776	32495	
5680	0	32850	32487	
5681	0	32782	32453	
5682	0	32792	32399	
5683	0	32824	32299	
5684	0	32768	32196	
5685	0	32730	32170	
5686	0	32825	32190	
5687	0	32836	32207	
5688	0	32764	32263	
5689	0	32838	32295	
5690	0	32820	32332	
5691	0	32784	32385	
5692	0	32774	32447	
5693	0	32804	32586	
5694	0	32790	32263	
5695	0	32816	32656	
5696	0	32824	32202	
5697	0	32812	32626	
5698	0	32785	32236	
5699	0	32852	32474	
5700	0	32808	32263	
5701	0	32830	32516	
5702	0	32804	32550	
5703	0	32822	32187	
5704	0	32804	32634	
5705	0	32802	32220	
5706	0	32758	32647	
5707	0	32788	32191	
5708	0	32844	32500	
5709	0	32775	32343	
5710	0	32734	32402	
5711	0	32831	32463	
5712	0	32790	32324	
5713	0	32748	32519	
5714	0	32751	32170	
5715	0	32740	32599	
5716	0	32784	32241	
5717	0	32870	32674	
5718	0	32847	32212	
5719	0	32823	32674	
5720	0	32810	32199	
5721	0	32828	32426	
5722	0	32892	32511	
5723	0	32836	32327	
5724	0	32788	32575	
5725	0	32761	32134	
5726	0	32830	32639	
5727	0	32798	32198	
