# OpenSignals Text File Format. Version 1
# {"00:07:80:4B:3C:23": {"position": 0, "device": "biosignalsplux", "device name": "00:07:80:4B:3C:23", "device connection": "BTH00:07:80:4B:3C:23", "sampling rate": 1000, "resolution": [16, 16], "firmware version": 776, "comments": "", "keywords": "", "mode": 0, "sync interval": 2, "date": "2024-9-26", "time": "11:48:32.971", "channels": [5, 7], "sensor": ["EMG", "EMG"], "label": ["CH5", "CH7"], "column": ["nSeq", "DI", "CH5", "CH7"], "special": [{"SpO2": [80, 40, 5, 4, 3, 3]}, {"SpO2": [80, 40, 5, 4, 3, 3]}, {"SpO2": [80, 40, 5, 4, 3, 3]}, {"SpO2": [80, 40, 5, 4, 3, 3]}, {"SpO2": [80, 40, 5, 4, 3, 3]}, {"SpO2": [80, 40, 5, 4, 3, 3]}, {"SpO2": [80, 40, 5, 4, 3, 3]}, {"SpO2": [80, 40, 5, 4, 3, 3]}], "digital IO": [0, 1], "sleeve color": ["gray", "brown"]}}
# EndOfHeader
0	0	32798	32203	
1	0	32839	32557	
2	0	32768	32327	
3	0	32730	32235	
4	0	32808	32586	
5	0	32812	32250	
6	0	32774	32340	
7	0	32732	32647	
8	0	32776	32263	
9	0	32808	32347	
10	0	32808	32613	
11	0	32784	32699	
12	0	32728	32439	
13	0	32870	32359	
14	0	32854	32229	
15	0	32800	32410	
16	0	32806	32519	
17	0	32866	32571	
18	0	32782	32476	
19	0	32692	32263	
20	0	32832	32214	
21	0	32872	32348	
22	0	32790	32478	
23	0	32822	32204	
24	0	32840	32565	
25	0	32844	32116	
26	0	32785	32694	
27	0	32758	32262	
28	0	32726	32369	
29	0	32820	32618	
30	0	32798	32231	
31	0	32756	32622	
32	0	32770	32285	
33	0	32820	32341	
34	0	32838	32532	
35	0	32744	32175	
36	0	32756	32531	
37	0	32794	32171	
38	0	32896	32621	
39	0	32852	32416	
40	0	32890	32415	
41	0	32756	32172	
42	0	32846	32375	
43	0	32774	32647	
44	0	32726	32538	
45	0	32782	32224	
46	0	32848	32303	
47	0	32824	32628	
48	0	32836	32623	
49	0	32756	32303	
50	0	32804	32318	
51	0	32764	32652	
52	0	32702	32433	
53	0	32772	32172	
54	0	32871	32327	
55	0	32872	32486	
56	0	32852	32658	
57	0	32802	32455	
58	0	32822	32340	
59	0	32714	32186	
60	0	32726	32212	
61	0	32748	32378	
62	0	32824	32519	
63	0	32820	32743	
64	0	32844	32359	
65	0	32870	32225	
66	0	32774	32595	
67	0	32828	32730	
68	0	32820	32298	
69	0	32830	32509	
70	0	32784	32346	
71	0	32864	32348	
72	0	32792	32194	
73	0	32694	32207	
74	0	32774	32290	
75	0	32856	32547	
76	0	32738	32647	
77	0	32814	32311	
78	0	32844	32294	
79	0	32774	32148	
80	0	32673	32215	
81	0	32628	32285	
82	0	32740	32492	
83	0	32802	32647	
84	0	32854	32473	
85	0	32782	32458	
86	0	32800	32301	
87	0	32858	32211	
88	0	32775	32204	
89	0	32866	32256	
90	0	32764	32506	
91	0	32802	32551	
92	0	32784	32578	
93	0	32902	32647	
94	0	32732	32433	
95	0	32788	32316	
96	0	32846	32251	
97	0	32804	32207	
98	0	32844	32446	
99	0	32840	32623	
100	0	32792	32687	
101	0	32664	32452	
102	0	32744	32319	
103	0	32764	32183	
104	0	32860	32198	
105	0	32938	32518	
106	0	32796	32566	
107	0	32756	32471	
108	0	32824	32287	
109	0	32760	32340	
110	0	32740	32591	
111	0	32804	32242	
112	0	32768	32292	
113	0	32823	32623	
114	0	32936	32178	
115	0	32798	32287	
116	0	32852	32679	
117	0	32864	32447	
118	0	32812	32215	
119	0	32748	32441	
120	0	32712	32597	
121	0	32764	32260	
122	0	32868	32378	
123	0	32758	32606	
124	0	32958	32486	
125	0	32968	32194	
126	0	32842	32276	
127	0	32874	32484	
128	0	32792	32626	
129	0	32828	32327	
130	0	32848	32213	
131	0	32700	32462	
132	0	32716	32607	
133	0	32747	32426	
134	0	32744	32244	
135	0	32836	32463	
136	0	32764	32695	
137	0	32806	32510	
138	0	32704	32380	
139	0	32770	32263	
140	0	32766	32263	
141	0	32852	32206	
142	0	32844	32519	
143	0	32720	32641	
144	0	32804	32447	
145	0	32816	32249	
146	0	32745	32247	
147	0	32784	32301	
148	0	32812	32487	
149	0	32792	32583	
150	0	32854	32371	
151	0	32800	32196	
152	0	32716	32245	
153	0	32800	32507	
154	0	32828	32607	
155	0	32836	32455	
156	0	32780	32279	
157	0	32810	32143	
158	0	32900	32453	
159	0	32796	32634	
160	0	32732	32479	
161	0	32652	32215	
162	0	32644	32623	
163	0	32562	32466	
164	0	32596	32247	
165	0	32632	32414	
166	0	32728	32669	
167	0	32596	32375	
168	0	32550	32250	
169	0	32600	32287	
170	0	32716	32558	
171	0	32748	32309	
172	0	32818	32166	
173	0	32876	32553	
174	0	32904	32434	
175	0	33062	32167	
176	0	32952	32514	
177	0	32977	32623	
178	0	32964	32263	
179	0	32902	32399	
180	0	32844	32623	
181	0	33012	32414	
182	0	32982	32188	
183	0	32960	32342	
184	0	32814	32455	
185	0	32804	32615	
186	0	32740	32455	
187	0	32721	32308	
188	0	32836	32238	
189	0	32908	32289	
190	0	32846	32529	
191	0	32794	32519	
192	0	32764	32129	
193	0	32686	32597	
194	0	32808	32487	
195	0	32970	32199	
196	0	33028	32687	
197	0	33048	32362	
198	0	33080	32374	
199	0	32980	32597	
200	0	33000	32331	
201	0	33008	32339	
202	0	33064	32700	
203	0	33086	32327	
204	0	32932	32283	
205	0	32808	32519	
206	0	32686	32558	
207	0	32584	32671	
208	0	32468	32351	
209	0	32444	32212	
210	0	32432	32611	
211	0	32558	32427	
212	0	32636	32262	
213	0	32596	32154	
214	0	32628	32438	
215	0	32626	32622	
216	0	32666	32415	
217	0	32665	32168	
218	0	32760	32359	
219	0	32736	32542	
220	0	32758	32443	
221	0	32858	32351	
222	0	32895	32170	
223	0	32903	32207	
224	0	32888	32438	
225	0	32912	32563	
226	0	32996	32647	
227	0	32880	32366	
228	0	32976	32218	
229	0	32900	32335	
230	0	32944	32502	
231	0	32916	32694	
232	0	32864	32693	
233	0	32876	32359	
234	0	32804	32415	
235	0	32756	32235	
236	0	32866	32255	
237	0	32868	32542	
238	0	32900	32668	
239	0	32828	32519	
240	0	32756	32303	
241	0	32744	32172	
242	0	32824	32212	
243	0	32796	32446	
244	0	32838	32639	
245	0	32796	32483	
246	0	32806	32263	
247	0	32910	32263	
248	0	32872	32175	
249	0	32772	32351	
250	0	32834	32595	
251	0	32810	32664	
252	0	32785	32407	
253	0	32732	32246	
254	0	32732	32178	
255	0	32800	32287	
256	0	32692	32519	
257	0	32764	32610	
258	0	32732	32719	
259	0	32740	32342	
260	0	32712	32252	
261	0	32742	32151	
262	0	32700	32231	
263	0	32672	32527	
264	0	32636	32572	
265	0	32616	32554	
266	0	32610	32357	
267	0	32532	32196	
268	0	32610	32182	
269	0	32572	32486	
270	0	32616	32618	
271	0	32556	32610	
272	0	32534	32676	
273	0	32574	32311	
274	0	32526	32135	
275	0	32542	32263	
276	0	32528	32391	
277	0	32588	32630	
278	0	32718	32364	
279	0	32684	32215	
280	0	32576	32263	
281	0	32560	32438	
282	0	32484	32644	
283	0	32368	32327	
284	0	32474	32151	
285	0	32568	32262	
286	0	32738	32582	
287	0	32789	32710	
288	0	32828	32348	
289	0	32860	32182	
290	0	33090	32245	
291	0	33102	32546	
292	0	33330	32484	
293	0	33581	32196	
294	0	33822	32634	
295	0	33970	32355	
296	0	33930	32170	
297	0	33636	32550	
298	0	33258	32558	
299	0	32760	32263	
300	0	32872	32216	
301	0	33048	32611	
302	0	33472	32454	
303	0	33370	32154	
304	0	33116	32356	
305	0	33162	32591	
306	0	33108	32446	
307	0	33090	32242	
308	0	32926	32419	
309	0	33046	32673	
310	0	33320	32294	
311	0	33784	32149	
312	0	34100	32562	
313	0	34150	32652	
314	0	33896	32437	
315	0	33618	32193	
316	0	33332	32561	
317	0	32926	32654	
318	0	32552	32420	
319	0	32124	32230	
320	0	31836	32262	
321	0	31644	32578	
322	0	31484	32189	
323	0	31446	32213	
324	0	31420	32452	
325	0	31340	32604	
326	0	31396	32340	
327	0	31548	32255	
328	0	31586	32169	
329	0	31740	32405	
330	0	32004	32567	
331	0	32145	32613	
332	0	32304	32671	
333	0	32460	32188	
334	0	32600	32487	
335	0	32660	32431	
336	0	32844	32228	
337	0	32981	32708	
338	0	32972	32238	
339	0	33057	32487	
340	0	33138	32356	
341	0	33122	32347	
342	0	33100	32479	
343	0	33190	32247	
344	0	33184	32559	
345	0	33098	32236	
346	0	33074	32679	
347	0	33044	32263	
348	0	33054	32575	
349	0	32924	32639	
350	0	32920	32495	
351	0	32952	32363	
352	0	32964	32335	
353	0	32912	32262	
354	0	32956	32256	
355	0	32872	32222	
356	0	32918	32322	
357	0	32936	32558	
358	0	32854	32644	
359	0	32797	32638	
360	0	32784	32518	
361	0	32680	32220	
362	0	32740	32126	
363	0	32752	32459	
364	0	32796	32647	
365	0	32794	32559	
366	0	32744	32255	
367	0	32740	32293	
368	0	32876	32227	
369	0	32848	32223	
370	0	32900	32226	
371	0	32864	32359	
372	0	32834	32499	
373	0	32824	32635	
374	0	32880	32663	
375	0	32802	32681	
376	0	32880	32362	
377	0	32828	32327	
378	0	32820	32214	
379	0	32984	32455	
380	0	32852	32641	
381	0	32784	32630	
382	0	32736	32367	
383	0	32746	32158	
384	0	32728	32263	
385	0	32775	32610	
386	0	32746	32319	
387	0	32796	32245	
388	0	32775	32430	
389	0	32736	32607	
390	0	32714	32415	
391	0	32804	32263	
392	0	32797	32346	
393	0	32792	32631	
394	0	32830	32435	
395	0	32804	32316	
396	0	32860	32187	
397	0	32928	32561	
398	0	32796	32628	
399	0	32900	32263	
400	0	33028	32148	
401	0	32808	32331	
402	0	32791	32615	
403	0	32780	32432	
404	0	32792	32255	
405	0	32772	32471	
406	0	32740	32583	
407	0	32662	32479	
408	0	32666	32343	
409	0	32772	32172	
410	0	32814	32423	
411	0	32812	32591	
412	0	32775	32671	
413	0	32868	32319	
414	0	32832	32198	
415	0	32792	32599	
416	0	32784	32185	
417	0	32814	32631	
418	0	32844	32291	
419	0	32836	32366	
420	0	32801	32455	
421	0	32808	32380	
422	0	32728	32493	
423	0	32754	32172	
424	0	32824	32620	
425	0	32767	32363	
426	0	32772	32373	
427	0	32764	32206	
428	0	32802	32415	
429	0	32784	32590	
430	0	32680	32599	
431	0	32839	32642	
432	0	32810	32455	
433	0	32853	32238	
434	0	32788	32174	
435	0	32806	32363	
436	0	32940	32663	
437	0	32868	32487	
438	0	32850	32335	
439	0	32734	32199	
440	0	32802	32391	
441	0	32820	32615	
442	0	32764	32645	
443	0	32830	32391	
444	0	32834	32206	
445	0	32898	32391	
446	0	32848	32615	
447	0	32804	32191	
448	0	32720	32655	
449	0	32846	32171	
450	0	32784	32492	
451	0	32724	32646	
452	0	32708	32640	
453	0	32668	32414	
454	0	32652	32204	
455	0	32692	32487	
456	0	32748	32687	
457	0	32769	32287	
458	0	32864	32295	
459	0	32864	32539	
460	0	32894	32642	
461	0	32858	32476	
462	0	32828	32370	
463	0	32828	32240	
464	0	32742	32161	
465	0	32744	32227	
466	0	32804	32375	
467	0	32784	32547	
468	0	32826	32660	
469	0	32990	32655	
470	0	32980	32548	
471	0	32848	32327	
472	0	32740	32157	
473	0	32775	32322	
474	0	32810	32598	
475	0	32800	32431	
476	0	32662	32250	
477	0	32712	32530	
478	0	32758	32337	
479	0	32750	32279	
480	0	32750	32602	
481	0	32712	32302	
482	0	32758	32263	
483	0	32812	32602	
484	0	32792	32422	
485	0	32804	32293	
486	0	32856	32163	
487	0	32938	32507	
488	0	32878	32591	
489	0	32864	32444	
490	0	32868	32335	
491	0	32774	32299	
492	0	32824	32572	
493	0	32718	32588	
494	0	32624	32231	
495	0	32740	32239	
496	0	32804	32551	
497	0	32838	32501	
498	0	32824	32231	
499	0	32910	32390	
500	0	32792	32674	
501	0	32836	32284	
502	0	32806	32287	
503	0	32762	32675	
504	0	32864	32478	
505	0	32814	32223	
506	0	32797	32581	
507	0	32804	32260	
508	0	32744	32571	
509	0	32748	32140	
510	0	32808	32299	
511	0	32846	32574	
512	0	32802	32683	
513	0	32810	32415	
514	0	32774	32207	
515	0	32836	32663	
516	0	32868	32342	
517	0	32928	32307	
518	0	32748	32495	
519	0	32748	32231	
520	0	32840	32408	
521	0	32827	32639	
522	0	32836	32427	
523	0	32754	32231	
524	0	32782	32247	
525	0	32842	32559	
526	0	32732	32647	
527	0	32867	32500	
528	0	32860	32244	
529	0	32826	32391	
530	0	32726	32645	
531	0	32778	32332	
532	0	32768	32287	
533	0	32800	32618	
534	0	32732	32322	
535	0	32720	32210	
536	0	32789	32548	
537	0	32769	32671	
538	0	32722	32230	
539	0	32820	32263	
540	0	32774	32570	
541	0	32885	32647	
542	0	32758	32295	
543	0	32846	32251	
544	0	32775	32612	
545	0	32830	32197	
546	0	32752	32318	
547	0	32732	32599	
548	0	32786	32359	
549	0	32734	32167	
550	0	32775	32470	
551	0	32890	32615	
552	0	32744	32263	
553	0	32792	32263	
554	0	32772	32597	
555	0	32864	32415	
556	0	32756	32167	
557	0	32814	32495	
558	0	32816	32660	
559	0	32756	32375	
560	0	32759	32180	
561	0	32750	32433	
562	0	32720	32654	
563	0	32852	32426	
564	0	32824	32251	
565	0	32798	32299	
566	0	32856	32631	
567	0	32764	32283	
568	0	32840	32232	
569	0	32736	32599	
570	0	32796	32406	
571	0	32860	32238	
572	0	32804	32527	
573	0	32762	32380	
574	0	32816	32290	
575	0	32760	32482	
576	0	32764	32430	
577	0	32824	32235	
578	0	32782	32495	
579	0	32834	32535	
580	0	32834	32275	
581	0	32780	32391	
582	0	32834	32663	
583	0	32831	32469	
584	0	32804	32327	
585	0	32848	32247	
586	0	32836	32295	
587	0	32800	32519	
588	0	32768	32555	
589	0	32744	32643	
590	0	32836	32391	
591	0	32788	32162	
592	0	32860	32159	
593	0	32824	32551	
594	0	32826	32636	
595	0	32880	32454	
596	0	32878	32519	
597	0	32920	32255	
598	0	32796	32654	
599	0	32758	32223	
600	0	32744	32572	
601	0	32824	32156	
602	0	32824	32727	
603	0	32792	32207	
604	0	32732	32430	
605	0	32756	32519	
606	0	32788	32230	
607	0	32758	32638	
608	0	32766	32199	
609	0	32854	32391	
610	0	32842	32647	
611	0	32800	32179	
612	0	32805	32405	
613	0	32822	32623	
614	0	32810	32292	
615	0	32750	32436	
616	0	32738	32450	
617	0	32758	32218	
618	0	32852	32644	
619	0	32864	32231	
620	0	32748	32415	
621	0	32773	32500	
622	0	32728	32247	
623	0	32808	32668	
624	0	32760	32295	
625	0	32744	32426	
626	0	32740	32301	
627	0	32828	32204	
628	0	32802	32282	
629	0	32828	32442	
630	0	32844	32545	
631	0	32826	32721	
632	0	32780	32399	
633	0	32802	32263	
634	0	32776	32171	
635	0	32884	32436	
636	0	32894	32684	
637	0	32849	32447	
638	0	32830	32245	
639	0	32775	32287	
640	0	32817	32583	
641	0	32820	32502	
642	0	32876	32263	
643	0	32860	32299	
644	0	32804	32638	
645	0	32744	32677	
646	0	32748	32337	
647	0	32806	32255	
648	0	32796	32348	
649	0	32772	32516	
650	0	32756	32614	
651	0	32816	32351	
652	0	32794	32277	
653	0	32824	32463	
654	0	32710	32676	
655	0	32741	32287	
656	0	32692	32255	
657	0	32676	32684	
658	0	32746	32412	
659	0	32802	32188	
660	0	32858	32639	
661	0	32842	32324	
662	0	32808	32215	
663	0	32820	32500	
664	0	32748	32606	
665	0	32724	32263	
666	0	32714	32519	
667	0	32764	32512	
668	0	32774	32103	
669	0	32782	32589	
670	0	32816	32455	
671	0	32838	32205	
672	0	32846	32389	
673	0	32808	32519	
674	0	32808	32183	
675	0	32824	32676	
676	0	32826	32367	
677	0	32808	32139	
678	0	32806	32343	
679	0	32872	32470	
680	0	32797	32207	
681	0	32780	32451	
682	0	32786	32633	
683	0	32815	32519	
684	0	32800	32238	
685	0	32822	32446	
686	0	32764	32295	
687	0	32752	32671	
688	0	32752	32535	
689	0	32774	32263	
690	0	32800	32451	
691	0	32730	32359	
692	0	32744	32562	
693	0	32808	32439	
694	0	32774	32282	
695	0	32900	32199	
696	0	32828	32484	
697	0	32828	32687	
698	0	32860	32374	
699	0	32796	32239	
700	0	32804	32608	
701	0	32816	32642	
702	0	32830	32434	
703	0	32816	32257	
704	0	32824	32294	
705	0	32884	32603	
706	0	32780	32647	
707	0	32780	32495	
708	0	32721	32359	
709	0	32780	32278	
710	0	32860	32246	
711	0	32816	32263	
712	0	32844	32518	
713	0	32858	32449	
714	0	32781	32180	
715	0	32769	32379	
716	0	32784	32637	
717	0	32740	32490	
718	0	32692	32358	
719	0	32826	32226	
720	0	32846	32463	
721	0	32890	32676	
722	0	32802	32334	
723	0	32828	32263	
724	0	32775	32678	
725	0	32824	32235	
726	0	32816	32378	
727	0	32832	32659	
728	0	32828	32199	
729	0	32782	32447	
730	0	32768	32458	
731	0	32696	32215	
732	0	32758	32695	
733	0	32812	32383	
734	0	32702	32432	
735	0	32784	32542	
736	0	32744	32199	
737	0	32818	32591	
738	0	32860	32263	
739	0	32762	32254	
740	0	32838	32692	
741	0	32794	32391	
742	0	32761	32487	
743	0	32748	32226	
744	0	32712	32547	
745	0	32744	32565	
746	0	32804	32372	
747	0	32826	32247	
748	0	32804	32321	
749	0	32788	32540	
750	0	32794	32646	
751	0	32828	32215	
752	0	32832	32231	
753	0	32908	32535	
754	0	32884	32639	
755	0	32764	32252	
756	0	32780	32356	
757	0	32728	32673	
758	0	32734	32263	
759	0	32754	32247	
760	0	32732	32615	
761	0	32726	32254	
762	0	32742	32231	
763	0	32848	32694	
764	0	32876	32403	
765	0	32822	32183	
766	0	32792	32581	
767	0	32866	32562	
768	0	32862	32255	
769	0	32844	32311	
770	0	32820	32519	
771	0	32734	32455	
772	0	32847	32215	
773	0	32760	32403	
774	0	32734	32575	
775	0	32778	32340	
776	0	32800	32239	
777	0	32896	32350	
778	0	32804	32590	
779	0	32796	32630	
780	0	32775	32634	
781	0	32839	32416	
782	0	32826	32227	
783	0	32786	32252	
784	0	32796	32294	
785	0	32752	32431	
786	0	32874	32515	
787	0	32822	32660	
788	0	32776	32631	
789	0	32808	32380	
790	0	32786	32215	
791	0	32782	32133	
792	0	32788	32343	
793	0	32726	32671	
794	0	32848	32258	
795	0	32746	32455	
796	0	32780	32431	
797	0	32732	32372	
798	0	32786	32391	
799	0	32821	32420	
800	0	32769	32399	
801	0	32784	32389	
802	0	32852	32535	
803	0	32858	32263	
804	0	32780	32538	
805	0	32752	32154	
806	0	32884	32671	
807	0	32794	32428	
808	0	32834	32247	
809	0	32804	32279	
810	0	32754	32498	
811	0	32832	32603	
812	0	32788	32596	
813	0	32808	32295	
814	0	32774	32158	
815	0	32769	32327	
816	0	32764	32415	
817	0	32772	32585	
818	0	32826	32756	
819	0	32806	32514	
820	0	32804	32217	
821	0	32814	32284	
822	0	32764	32423	
823	0	32784	32623	
824	0	32740	32608	
825	0	32812	32599	
826	0	32808	32347	
827	0	32792	32223	
828	0	32804	32188	
829	0	32720	32229	
830	0	32808	32519	
831	0	32756	32647	
832	0	32788	32455	
833	0	32834	32388	
834	0	32740	32210	
835	0	32804	32358	
836	0	32840	32519	
837	0	32844	32711	
838	0	32798	32660	
839	0	32844	32500	
840	0	32758	32415	
841	0	32860	32351	
842	0	32850	32228	
843	0	32818	32180	
844	0	32767	32263	
845	0	32794	32559	
846	0	32744	32645	
847	0	32812	32366	
848	0	32766	32237	
849	0	32732	32167	
850	0	32788	32174	
851	0	32881	32263	
852	0	32808	32582	
853	0	32840	32672	
854	0	32824	32262	
855	0	32812	32321	
856	0	32798	32660	
857	0	32774	32519	
858	0	32790	32519	
859	0	32775	32118	
860	0	32770	32468	
861	0	32816	32534	
862	0	32847	32188	
863	0	32817	32379	
864	0	32818	32655	
865	0	32824	32293	
866	0	32796	32354	
867	0	32878	32619	
868	0	32744	32327	
869	0	32788	32363	
870	0	32834	32652	
871	0	32828	32366	
872	0	32894	32263	
873	0	32808	32647	
874	0	32824	32697	
875	0	32840	32199	
876	0	32860	32247	
877	0	32804	32455	
878	0	32876	32653	
879	0	32872	32502	
880	0	32920	32319	
881	0	32902	32190	
882	0	32788	32429	
883	0	32775	32683	
884	0	32868	32507	
885	0	32790	32391	
886	0	32720	32206	
887	0	32776	32321	
888	0	32788	32518	
889	0	32780	32643	
890	0	32724	32374	
891	0	32692	32230	
892	0	32714	32252	
893	0	32784	32369	
894	0	32800	32556	
895	0	32718	32710	
896	0	32636	32452	
897	0	32554	32226	
898	0	32529	32175	
899	0	32648	32247	
900	0	32656	32385	
901	0	32700	32639	
902	0	32822	32519	
903	0	32748	32375	
904	0	32774	32174	
905	0	32774	32263	
906	0	32706	32518	
907	0	32804	32647	
908	0	32908	32455	
909	0	32888	32227	
910	0	32842	32188	
911	0	32860	32463	
912	0	32862	32636	
913	0	32924	32470	
914	0	32870	32355	
915	0	32853	32228	
916	0	32864	32295	
917	0	32848	32530	
918	0	32935	32647	
919	0	32992	32414	
920	0	33011	32191	
921	0	32892	32148	
922	0	32764	32491	
923	0	32742	32611	
924	0	32820	32595	
925	0	32932	32295	
926	0	33060	32261	
927	0	32976	32613	
928	0	33008	32644	
929	0	33046	32444	
930	0	32940	32255	
931	0	32978	32465	
932	0	33040	32635	
933	0	32930	32378	
934	0	32882	32187	
935	0	32804	32391	
936	0	32736	32629	
937	0	32656	32671	
938	0	32634	32263	
939	0	32590	32403	
940	0	32644	32711	
941	0	32668	32447	
942	0	32628	32254	
943	0	32556	32151	
944	0	32677	32318	
945	0	32620	32660	
946	0	32664	32452	
947	0	32694	32263	
948	0	32758	32236	
949	0	32796	32487	
950	0	32756	32600	
951	0	32842	32390	
952	0	32872	32247	
953	0	32817	32480	
954	0	32826	32622	
955	0	32870	32337	
956	0	32892	32290	
957	0	32922	32443	
958	0	32956	32687	
959	0	32964	32389	
960	0	32968	32204	
961	0	32926	32292	
962	0	32908	32666	
963	0	32804	32447	
964	0	32772	32255	
965	0	32824	32407	
966	0	32888	32700	
967	0	32868	32446	
968	0	32728	32239	
969	0	32772	32215	
970	0	32798	32508	
971	0	32768	32647	
972	0	32767	32325	
973	0	32772	32255	
974	0	32764	32611	
975	0	32748	32499	
976	0	32856	32342	
977	0	32774	32164	
978	0	32798	32413	
979	0	32772	32579	
980	0	32716	32365	
981	0	32708	32263	
982	0	32700	32135	
983	0	32748	32407	
984	0	32716	32543	
985	0	32756	32610	
986	0	32832	32514	
987	0	32816	32372	
988	0	32668	32223	
989	0	32742	32182	
990	0	32728	32439	
991	0	32808	32679	
992	0	32804	32452	
993	0	32826	32198	
994	0	32730	32519	
995	0	32828	32519	
996	0	32726	32214	
997	0	32628	32486	
998	0	32636	32647	
999	0	32628	32246	
1000	0	32638	32239	
1001	0	32644	32492	
1002	0	32580	32674	
1003	0	32488	32341	
1004	0	32474	32204	
1005	0	32504	32423	
1006	0	32520	32553	
1007	0	32494	32638	
1008	0	32484	32436	
1009	0	32544	32234	
1010	0	32596	32245	
1011	0	32616	32338	
1012	0	32503	32574	
1013	0	32500	32188	
1014	0	32396	32440	
1015	0	32368	32550	
1016	0	32469	32179	
1017	0	32600	32660	
1018	0	32674	32375	
1019	0	32836	32263	
1020	0	32868	32588	
1021	0	33100	32326	
1022	0	33191	32173	
1023	0	33264	32634	
1024	0	33608	32441	
1025	0	33857	32220	
1026	0	34052	32482	
1027	0	34236	32419	
1028	0	33954	32549	
1029	0	33664	32623	
1030	0	33198	32647	
1031	0	32970	32439	
1032	0	33004	32340	
1033	0	33258	32263	
1034	0	33518	32173	
1035	0	33380	32359	
1036	0	33024	32551	
1037	0	33108	32671	
1038	0	32982	32510	
1039	0	32938	32378	
1040	0	32992	32293	
1041	0	33234	32228	
1042	0	33360	32263	
1043	0	33746	32246	
1044	0	34072	32295	
1045	0	34002	32375	
1046	0	33892	32555	
1047	0	33592	32482	
1048	0	33089	32634	
1049	0	32568	32662	
1050	0	32258	32652	
1051	0	32015	32534	
1052	0	31703	32390	
1053	0	31412	32354	
1054	0	31326	32290	
1055	0	31400	32231	
1056	0	31296	32151	
1057	0	31246	32438	
1058	0	31316	32540	
1059	0	31353	32446	
1060	0	31516	32287	
1061	0	31782	32165	
1062	0	31984	32442	
1063	0	32112	32583	
1064	0	32360	32426	
1065	0	32482	32135	
1066	0	32656	32197	
1067	0	32790	32327	
1068	0	32964	32135	
1069	0	33044	32198	
1070	0	33044	32431	
1071	0	33076	32308	
1072	0	33132	32510	
1073	0	33268	32263	
1074	0	33300	32391	
1075	0	33232	32252	
1076	0	33120	32228	
1077	0	33186	32215	
1078	0	33164	32431	
1079	0	33078	32565	
1080	0	33080	32615	
1081	0	32968	32583	
1082	0	32912	32511	
1083	0	32988	32430	
1084	0	32976	32203	
1085	0	32932	32230	
1086	0	32860	32231	
1087	0	32860	32289	
1088	0	32800	32455	
1089	0	32844	32537	
1090	0	32820	32666	
1091	0	32854	32632	
1092	0	32836	32631	
1093	0	32804	32417	
1094	0	32844	32239	
1095	0	32752	32343	
1096	0	32768	32615	
1097	0	32800	32423	
1098	0	32876	32238	
1099	0	32764	32198	
1100	0	32806	32601	
1101	0	32796	32479	
1102	0	32806	32212	
1103	0	32834	32323	
1104	0	32849	32391	
1105	0	32773	32414	
1106	0	32724	32623	
1107	0	32774	32596	
1108	0	32775	32487	
1109	0	32856	32311	
1110	0	32788	32317	
1111	0	32782	32174	
1112	0	32804	32226	
1113	0	32810	32458	
1114	0	32892	32631	
1115	0	32788	32479	
1116	0	32792	32316	
1117	0	32840	32202	
1118	0	32778	32229	
1119	0	32817	32426	
1120	0	32834	32543	
1121	0	32697	32621	
1122	0	32828	32663	
1123	0	32896	32427	
1124	0	32870	32287	
1125	0	32848	32239	
1126	0	32826	32167	
1127	0	32800	32249	
1128	0	32764	32432	
1129	0	32792	32564	
1130	0	32754	32668	
1131	0	32792	32478	
1132	0	32738	32343	
1133	0	32724	32189	
1134	0	32800	32199	
1135	0	32718	32263	
1136	0	32781	32352	
1137	0	32832	32438	
1138	0	32852	32494	
1139	0	32869	32609	
1140	0	32812	32652	
1141	0	32832	32391	
1142	0	32860	32385	
1143	0	32820	32186	
1144	0	32760	32151	
1145	0	32804	32223	
1146	0	32804	32324	
1147	0	32768	32388	
1148	0	32752	32533	
1149	0	32760	32611	
1150	0	32816	32656	
1151	0	32794	32532	
1152	0	32874	32332	
1153	0	32794	32207	
1154	0	32772	32246	
1155	0	32805	32351	
1156	0	32812	32423	
1157	0	32812	32516	
1158	0	32834	32638	
1159	0	32732	32567	
1160	0	32856	32701	
1161	0	32844	32658	
1162	0	32828	32492	
1163	0	32802	32452	
1164	0	32768	32243	
1165	0	32836	32199	
1166	0	32764	32188	
1167	0	32808	32194	
1168	0	32732	32231	
1169	0	32782	32447	
1170	0	32678	32574	
1171	0	32775	32490	
1172	0	32716	32258	
1173	0	32860	32326	
1174	0	32838	32657	
1175	0	32836	32279	
1176	0	32818	32381	
1177	0	32832	32668	
1178	0	32810	32317	
1179	0	32732	32277	
1180	0	32772	32647	
1181	0	32888	32334	
1182	0	32848	32327	
1183	0	32860	32647	
1184	0	32928	32365	
1185	0	32822	32358	
1186	0	32808	32167	
1187	0	32720	32325	
1188	0	32796	32618	
1189	0	32844	32386	
1190	0	32868	32236	
1191	0	32768	32455	
1192	0	32728	32548	
1193	0	32868	32230	
1194	0	32782	32567	
1195	0	32766	32406	
1196	0	32764	32223	
1197	0	32704	32454	
1198	0	32738	32324	
1199	0	32904	32573	
1200	0	32840	32254	
1201	0	32852	32676	
1202	0	32798	32212	
1203	0	32764	32373	
1204	0	32740	32530	
1205	0	32742	32219	
1206	0	32848	32487	
1207	0	32810	32518	
1208	0	32780	32274	
1209	0	32804	32647	
1210	0	32756	32483	
1211	0	32764	32135	
1212	0	32789	32419	
1213	0	32748	32587	
1214	0	32776	32295	
1215	0	32752	32287	
1216	0	32810	32581	
1217	0	32780	32223	
1218	0	32881	32444	
1219	0	32928	32619	
1220	0	32868	32231	
1221	0	32798	32483	
1222	0	32796	32595	
1223	0	32838	32135	
1224	0	32832	32436	
1225	0	32848	32569	
1226	0	32890	32223	
1227	0	32804	32210	
1228	0	32796	32484	
1229	0	32854	32655	
1230	0	32864	32596	
1231	0	32872	32231	
1232	0	32794	32282	
1233	0	32820	32500	
1234	0	32816	32647	
1235	0	32756	32363	
1236	0	32808	32263	
1237	0	32784	32484	
1238	0	32804	32625	
1239	0	32896	32225	
1240	0	32752	32255	
1241	0	32724	32615	
1242	0	32736	32341	
1243	0	32780	32262	
1244	0	32768	32463	
1245	0	32775	32497	
1246	0	32862	32494	
1247	0	32772	32374	
1248	0	32836	32260	
1249	0	32814	32582	
1250	0	32716	32607	
1251	0	32775	32188	
1252	0	32847	32327	
1253	0	32900	32719	
1254	0	32804	32519	
1255	0	32750	32287	
1256	0	32804	32362	
1257	0	32800	32703	
1258	0	32760	32194	
1259	0	32848	32612	
1260	0	32836	32343	
1261	0	32752	32234	
1262	0	32775	32591	
1263	0	32858	32199	
1264	0	32884	32609	
1265	0	32885	32207	
1266	0	32904	32551	
1267	0	32776	32257	
1268	0	32744	32559	
1269	0	32798	32351	
1270	0	32756	32423	
1271	0	32746	32444	
1272	0	32668	32222	
1273	0	32732	32683	
1274	0	32768	32120	
1275	0	32783	32558	
1276	0	32870	32263	
1277	0	32866	32415	
1278	0	32847	32588	
1279	0	32837	32218	
1280	0	32816	32391	
1281	0	32775	32557	
1282	0	32724	32333	
1283	0	32780	32188	
1284	0	32784	32484	
1285	0	32804	32628	
1286	0	32784	32342	
1287	0	32752	32199	
1288	0	32796	32604	
1289	0	32804	32339	
1290	0	32800	32359	
1291	0	32850	32661	
1292	0	32832	32174	
1293	0	32788	32655	
1294	0	32790	32303	
1295	0	32676	32455	
1296	0	32750	32655	
1297	0	32788	32399	
1298	0	32800	32199	
1299	0	32838	32509	
1300	0	32804	32473	
1301	0	32751	32255	
1302	0	32733	32668	
1303	0	32798	32239	
1304	0	32757	32566	
1305	0	32796	32284	
1306	0	32784	32417	
1307	0	32758	32463	
1308	0	32744	32149	
1309	0	32824	32625	
1310	0	32800	32263	
1311	0	32772	32230	
1312	0	32860	32391	
1313	0	32848	32738	
1314	0	32878	32615	
1315	0	32824	32298	
1316	0	32900	32511	
1317	0	32828	32420	
1318	0	32840	32427	
1319	0	32828	32231	
1320	0	32768	32356	
1321	0	32740	32612	
1322	0	32814	32311	
1323	0	32824	32188	
1324	0	32758	32235	
1325	0	32816	32430	
1326	0	32844	32626	
1327	0	32870	32671	
1328	0	32876	32381	
1329	0	32820	32239	
1330	0	32830	32263	
1331	0	32812	32551	
1332	0	32828	32607	
1333	0	32734	32263	
1334	0	32788	32244	
1335	0	32776	32567	
1336	0	32782	32503	
1337	0	32820	32207	
1338	0	32764	32411	
1339	0	32784	32438	
1340	0	32844	32247	
1341	0	32821	32643	
1342	0	32775	32263	
1343	0	32816	32165	
1344	0	32828	32450	
1345	0	32912	32467	
1346	0	32810	32231	
1347	0	32848	32556	
1348	0	32768	32439	
1349	0	32764	32244	
1350	0	32781	32645	
1351	0	32786	32324	
1352	0	32810	32399	
1353	0	32760	32670	
1354	0	32772	32327	
1355	0	32910	32302	
1356	0	32878	32686	
1357	0	32814	32403	
1358	0	32768	32190	
1359	0	32788	32677	
1360	0	32806	32351	
1361	0	32772	32210	
1362	0	32812	32231	
1363	0	32822	32310	
1364	0	32860	32586	
1365	0	32858	32635	
1366	0	32760	32358	
1367	0	32804	32231	
1368	0	32860	32183	
1369	0	32772	32287	
1370	0	32728	32350	
1371	0	32844	32383	
1372	0	32872	32478	
1373	0	32784	32566	
1374	0	32848	32580	
1375	0	32814	32702	
1376	0	32790	32519	
1377	0	32756	32389	
1378	0	32744	32302	
1379	0	32768	32327	
1380	0	32817	32319	
1381	0	32774	32206	
1382	0	32772	32263	
1383	0	32790	32261	
1384	0	32804	32367	
1385	0	32796	32406	
1386	0	32826	32508	
1387	0	32876	32518	
1388	0	32855	32683	
1389	0	32788	32366	
1390	0	32852	32183	
1391	0	32775	32282	
1392	0	32804	32551	
1393	0	32828	32685	
1394	0	32864	32487	
1395	0	32806	32308	
1396	0	32824	32235	
1397	0	32800	32423	
1398	0	32880	32620	
1399	0	32856	32673	
1400	0	32758	32295	
1401	0	32836	32181	
1402	0	32738	32367	
1403	0	32764	32583	
1404	0	32760	32647	
1405	0	32676	32332	
1406	0	32744	32202	
1407	0	32844	32334	
1408	0	32816	32663	
1409	0	32743	32415	
1410	0	32784	32311	
1411	0	32820	32223	
1412	0	32804	32548	
1413	0	32775	32654	
1414	0	32806	32495	
1415	0	32772	32334	
1416	0	32774	32212	
1417	0	32796	32234	
1418	0	32952	32407	
1419	0	32932	32519	
1420	0	32834	32647	
1421	0	32748	32647	
1422	0	32756	32606	
1423	0	32844	32437	
1424	0	32888	32341	
1425	0	32812	32230	
1426	0	32840	32611	
1427	0	32764	32487	
1428	0	32776	32319	
1429	0	32740	32263	
1430	0	32772	32135	
1431	0	32766	32290	
1432	0	32796	32414	
1433	0	32876	32588	
1434	0	32874	32465	
1435	0	32734	32245	
1436	0	32836	32213	
1437	0	32788	32614	
1438	0	32809	32519	
1439	0	32768	32196	
1440	0	32716	32310	
1441	0	32734	32359	
1442	0	32740	32487	
1443	0	32764	32558	
1444	0	32802	32629	
1445	0	32788	32633	
1446	0	32780	32519	
1447	0	32788	32355	
1448	0	32848	32204	
1449	0	32860	32199	
1450	0	32852	32222	
1451	0	32876	32180	
1452	0	32740	32367	
1453	0	32852	32597	
1454	0	32796	32660	
1455	0	32885	32634	
1456	0	32830	32421	
1457	0	32794	32159	
1458	0	32780	32465	
1459	0	32828	32599	
1460	0	32782	32715	
1461	0	32788	32435	
1462	0	32748	32326	
1463	0	32793	32243	
1464	0	32767	32375	
1465	0	32836	32583	
1466	0	32893	32486	
1467	0	32862	32246	
1468	0	32865	32199	
1469	0	32860	32478	
1470	0	32894	32703	
1471	0	32820	32351	
1472	0	32780	32253	
1473	0	32740	32387	
1474	0	32690	32607	
1475	0	32756	32487	
1476	0	32744	32313	
1477	0	32800	32220	
1478	0	32764	32324	
1479	0	32808	32437	
1480	0	32784	32532	
1481	0	32760	32590	
1482	0	32736	32511	
1483	0	32772	32375	
1484	0	32764	32166	
1485	0	32765	32260	
1486	0	32820	32457	
1487	0	32716	32583	
1488	0	32762	32677	
1489	0	32830	32469	
1490	0	32844	32302	
1491	0	32884	32255	
1492	0	32836	32196	
1493	0	32804	32615	
1494	0	32866	32391	
1495	0	32838	32289	
1496	0	32878	32692	
1497	0	32902	32327	
1498	0	32832	32366	
1499	0	32698	32542	
1500	0	32756	32148	
1501	0	32800	32263	
1502	0	32788	32489	
1503	0	32728	32654	
1504	0	32796	32214	
1505	0	32753	32552	
1506	0	32778	32595	
1507	0	32892	32391	
1508	0	32859	32173	
1509	0	32812	32370	
1510	0	32756	32639	
1511	0	32740	32323	
1512	0	32798	32287	
1513	0	32800	32575	
1514	0	32836	32454	
1515	0	32756	32166	
1516	0	32770	32398	
1517	0	32826	32667	
1518	0	32765	32463	
1519	0	32750	32631	
1520	0	32757	32199	
1521	0	32756	32188	
1522	0	32704	32478	
1523	0	32782	32599	
1524	0	32820	32216	
1525	0	32788	32503	
1526	0	32778	32519	
1527	0	32768	32239	
1528	0	32812	32335	
1529	0	32775	32647	
1530	0	32848	32511	
1531	0	32849	32348	
1532	0	32792	32211	
1533	0	32810	32469	
1534	0	32864	32597	
1535	0	32692	32470	
1536	0	32756	32316	
1537	0	32804	32591	
1538	0	32810	32549	
1539	0	32812	32318	
1540	0	32794	32183	
1541	0	32812	32428	
1542	0	32825	32663	
1543	0	32812	32375	
1544	0	32772	32180	
1545	0	32852	32228	
1546	0	32840	32567	
1547	0	32772	32487	
1548	0	32900	32262	
1549	0	32868	32213	
1550	0	32778	32535	
1551	0	32820	32519	
1552	0	32842	32187	
1553	0	32792	32556	
1554	0	32732	32454	
1555	0	32828	32191	
1556	0	32812	32469	
1557	0	32844	32670	
1558	0	32776	32307	
1559	0	32684	32351	
1560	0	32798	32564	
1561	0	32716	32355	
1562	0	32748	32301	
1563	0	32800	32310	
1564	0	32764	32620	
1565	0	32860	32399	
1566	0	32798	32204	
1567	0	32832	32647	
1568	0	32720	32497	
1569	0	32816	32362	
1570	0	32844	32495	
1571	0	32821	32169	
1572	0	32826	32317	
1573	0	32824	32614	
1574	0	32842	32694	
1575	0	32814	32369	
1576	0	32872	32199	
1577	0	32860	32499	
1578	0	32798	32703	
1579	0	32769	32423	
1580	0	32760	32263	
1581	0	32728	32123	
1582	0	32780	32455	
1583	0	32771	32505	
1584	0	32714	32518	
1585	0	32678	32132	
1586	0	32792	32408	
1587	0	32801	32715	
1588	0	32752	32207	
1589	0	32862	32379	
1590	0	32848	32669	
1591	0	32874	32370	
1592	0	32820	32294	
1593	0	32844	32675	
1594	0	32892	32406	
1595	0	32896	32150	
1596	0	32884	32539	
1597	0	32888	32631	
1598	0	32844	32506	
1599	0	32768	32472	
1600	0	32821	32294	
1601	0	32808	32637	
1602	0	32804	32164	
1603	0	32768	32585	
1604	0	32784	32221	
1605	0	32652	32407	
1606	0	32670	32402	
1607	0	32648	32412	
1608	0	32660	32572	
1609	0	32660	32294	
1610	0	32568	32367	
1611	0	32548	32463	
1612	0	32612	32189	
1613	0	32710	32628	
1614	0	32748	32540	
1615	0	32756	32422	
1616	0	32760	32142	
1617	0	32822	32607	
1618	0	32748	32431	
1619	0	32848	32231	
1620	0	32820	32567	
1621	0	32791	32471	
1622	0	32828	32229	
1623	0	32892	32463	
1624	0	32960	32703	
1625	0	32916	32247	
1626	0	32876	32300	
1627	0	32956	32592	
1628	0	32924	32319	
1629	0	32940	32280	
1630	0	32916	32668	
1631	0	32988	32491	
1632	0	33000	32263	
1633	0	32944	32365	
1634	0	32788	32614	
1635	0	32774	32318	
1636	0	32784	32263	
1637	0	32828	32708	
1638	0	32972	32422	
1639	0	33052	32177	
1640	0	33020	32478	
1641	0	33048	32635	
1642	0	33012	32391	
1643	0	32988	32222	
1644	0	33054	32420	
1645	0	33028	32620	
1646	0	32992	32486	
1647	0	32830	32263	
1648	0	32688	32279	
1649	0	32572	32639	
1650	0	32568	32327	
1651	0	32528	32263	
1652	0	32480	32215	
1653	0	32488	32571	
1654	0	32545	32705	
1655	0	32548	32180	
1656	0	32552	32239	
1657	0	32666	32602	
1658	0	32708	32666	
1659	0	32764	32410	
1660	0	32692	32228	
1661	0	32740	32335	
1662	0	32836	32639	
1663	0	32820	32373	
1664	0	32896	32219	
1665	0	32838	32372	
1666	0	32912	32615	
1667	0	32944	32462	
1668	0	32968	32175	
1669	0	32876	32570	
1670	0	32928	32405	
1671	0	32882	32282	
1672	0	32828	32358	
1673	0	32768	32655	
1674	0	32812	32330	
1675	0	32772	32177	
1676	0	32852	32401	
1677	0	32856	32606	
1678	0	32845	32711	
1679	0	32902	32510	
1680	0	32904	32347	
1681	0	32774	32263	
1682	0	32721	32206	
1683	0	32772	32294	
1684	0	32784	32390	
1685	0	32796	32582	
1686	0	32864	32607	
1687	0	32799	32687	
1688	0	32788	32524	
1689	0	32884	32348	
1690	0	32803	32226	
1691	0	32721	32157	
1692	0	32756	32182	
1693	0	32742	32391	
1694	0	32828	32455	
1695	0	32780	32610	
1696	0	32772	32647	
1697	0	32812	32528	
1698	0	32820	32343	
1699	0	32824	32348	
1700	0	32828	32231	
1701	0	32798	32218	
1702	0	32726	32156	
1703	0	32722	32350	
1704	0	32730	32519	
1705	0	32830	32635	
1706	0	32818	32558	
1707	0	32804	32371	
1708	0	32759	32295	
1709	0	32766	32182	
1710	0	32672	32148	
1711	0	32612	32217	
1712	0	32638	32315	
1713	0	32646	32391	
1714	0	32620	32611	
1715	0	32492	32630	
1716	0	32504	32638	
1717	0	32490	32643	
1718	0	32416	32538	
1719	0	32436	32471	
1720	0	32404	32346	
1721	0	32520	32228	
1722	0	32622	32194	
1723	0	32644	32160	
1724	0	32616	32207	
1725	0	32444	32210	
1726	0	32420	32126	
1727	0	32356	32186	
1728	0	32322	32263	
1729	0	32554	32631	
1730	0	32702	32495	
1731	0	32700	32259	
1732	0	32821	32188	
1733	0	32852	32444	
1734	0	33064	32577	
1735	0	33144	32565	
1736	0	33406	32306	
1737	0	33748	32130	
1738	0	34056	32343	
1739	0	34326	32575	
1740	0	34064	32599	
1741	0	33792	32343	
1742	0	33368	32207	
1743	0	33160	32214	
1744	0	33064	32353	
1745	0	33266	32327	
1746	0	33512	32414	
1747	0	33356	32590	
1748	0	33304	32469	
1749	0	33160	32370	
1750	0	33096	32159	
1751	0	32872	32292	
1752	0	32964	32487	
1753	0	33288	32646	
1754	0	33526	32668	
1755	0	33884	32559	
1756	0	34004	32359	
1757	0	33992	32263	
1758	0	33912	32198	
1759	0	33560	32173	
1760	0	33216	32231	
1761	0	32796	32278	
1762	0	32353	32190	
1763	0	31976	32198	
1764	0	31460	32228	
1765	0	31270	32294	
1766	0	31112	32412	
1767	0	31120	32178	
1768	0	31020	32180	
1769	0	31118	32388	
1770	0	31126	32546	
1771	0	31334	32548	
1772	0	31520	32607	
1773	0	31676	32583	
1774	0	31844	32700	
1775	0	32041	32660	
1776	0	32228	32172	
1777	0	32401	32612	
1778	0	32608	32263	
1779	0	32827	32155	
1780	0	32946	32253	
1781	0	33004	32263	
1782	0	33106	32354	
1783	0	33272	32414	
1784	0	33262	32467	
1785	0	33372	32455	
1786	0	33315	32455	
1787	0	33300	32470	
1788	0	33294	32410	
1789	0	33268	32361	
1790	0	33156	32414	
1791	0	33158	32391	
1792	0	33110	32436	
1793	0	33110	32448	
1794	0	33076	32444	
1795	0	33066	32381	
1796	0	32964	32454	
1797	0	32928	32409	
1798	0	32836	32495	
1799	0	32870	32426	
1800	0	32785	32519	
1801	0	32708	32530	
1802	0	32744	32628	
1803	0	32816	32655	
1804	0	32757	32591	
1805	0	32820	32604	
1806	0	32784	32562	
1807	0	32752	32564	
1808	0	32734	32623	
1809	0	32721	32647	
1810	0	32832	32434	
1811	0	32838	32452	
1812	0	32774	32375	
1813	0	32836	32278	
1814	0	32810	32474	
1815	0	32816	32382	
1816	0	32756	32491	
1817	0	32880	32323	
1818	0	32880	32583	
1819	0	32823	32186	
1820	0	32856	32638	
1821	0	32808	32234	
1822	0	32714	32076	
1823	0	32751	32166	
1824	0	32800	32199	
1825	0	32784	32188	
1826	0	32817	32442	
1827	0	32782	32352	
1828	0	32774	32668	
1829	0	32716	32540	
1830	0	32788	32263	
1831	0	32824	32230	
1832	0	32808	32391	
1833	0	32826	32559	
1834	0	32824	32586	
1835	0	32788	32667	
1836	0	32854	32455	
1837	0	32846	32276	
1838	0	32804	32244	
1839	0	32840	32155	
1840	0	32838	32331	
1841	0	32832	32503	
1842	0	32826	32578	
1843	0	32836	32615	
1844	0	32794	32679	
1845	0	32792	32599	
1846	0	32770	32447	
1847	0	32756	32322	
1848	0	32804	32263	
1849	0	32762	32278	
1850	0	32822	32247	
1851	0	32877	32285	
1852	0	32813	32516	
1853	0	32801	32655	
1854	0	32775	32331	
1855	0	32774	32300	
1856	0	32800	32299	
1857	0	32800	32307	
1858	0	32791	32263	
1859	0	32786	32215	
1860	0	32888	32263	
1861	0	32912	32338	
1862	0	32876	32451	
1863	0	32820	32519	
1864	0	32841	32674	
1865	0	32812	32327	
1866	0	32752	32184	
1867	0	32791	32311	
1868	0	32808	32606	
1869	0	32848	32727	
1870	0	32752	32373	
1871	0	32732	32169	
1872	0	32780	32199	
1873	0	32676	32381	
1874	0	32760	32578	
1875	0	32768	32726	
1876	0	32804	32404	
1877	0	32805	32337	
1878	0	32784	32351	
1879	0	32784	32611	
1880	0	32812	32153	
1881	0	32780	32469	
1882	0	32794	32474	
1883	0	32796	32367	
1884	0	32824	32181	
1885	0	32888	32572	
1886	0	32800	32535	
1887	0	32836	32327	
1888	0	32788	32189	
1889	0	32890	32583	
1890	0	32904	32511	
1891	0	32816	32285	
1892	0	32775	32295	
1893	0	32784	32631	
1894	0	32736	32283	
1895	0	32783	32255	
1896	0	32797	32636	
1897	0	32790	32609	
1898	0	32796	32330	
1899	0	32834	32263	
1900	0	32737	32598	
1901	0	32774	32695	
1902	0	32812	32260	
1903	0	32750	32175	
1904	0	32768	32547	
1905	0	32790	32615	
1906	0	32816	32263	
1907	0	32848	32199	
1908	0	32804	32566	
1909	0	32808	32702	
1910	0	32772	32367	
1911	0	32834	32175	
1912	0	32838	32597	
1913	0	32850	32417	
1914	0	32808	32238	
1915	0	32768	32490	
1916	0	32772	32439	
1917	0	32810	32247	
1918	0	32880	32539	
1919	0	32836	32351	
1920	0	32804	32276	
1921	0	32796	32660	
1922	0	32790	32506	
1923	0	32814	32197	
1924	0	32864	32488	
1925	0	32788	32639	
1926	0	32820	32195	
1927	0	32834	32359	
1928	0	32792	32591	
1929	0	32864	32711	
1930	0	32749	32683	
1931	0	32772	32263	
1932	0	32828	32227	
1933	0	32740	32302	
1934	0	32728	32615	
1935	0	32868	32583	
1936	0	32820	32507	
1937	0	32876	32303	
1938	0	32769	32141	
1939	0	32816	32347	
1940	0	32792	32516	
1941	0	32797	32580	
1942	0	32808	32687	
1943	0	32780	32354	
1944	0	32772	32255	
1945	0	32780	32367	
1946	0	32804	32682	
1947	0	32900	32438	
1948	0	32930	32263	
1949	0	32836	32575	
1950	0	32898	32239	
1951	0	32854	32335	
1952	0	32879	32610	
1953	0	32810	32263	
1954	0	32828	32177	
1955	0	32800	32436	
1956	0	32775	32647	
1957	0	32756	32554	
1958	0	32748	32290	
1959	0	32752	32209	
1960	0	32882	32375	
1961	0	32820	32287	
1962	0	32704	32615	
1963	0	32693	32347	
1964	0	32684	32191	
1965	0	32740	32615	
1966	0	32750	32647	
1967	0	32736	32306	
1968	0	32740	32231	
1969	0	32816	32566	
1970	0	32804	32628	
1971	0	32726	32354	
1972	0	32920	32213	
1973	0	32828	32583	
1974	0	32808	32538	
1975	0	32820	32242	
1976	0	32877	32519	
1977	0	32834	32686	
1978	0	32782	32199	
1979	0	32804	32500	
1980	0	32820	32687	
1981	0	32830	32255	
1982	0	32806	32318	
1983	0	32783	32611	
1984	0	32820	32283	
1985	0	32844	32428	
1986	0	32748	32622	
1987	0	32752	32249	
1988	0	32684	32260	
1989	0	32772	32569	
1990	0	32680	32369	
1991	0	32740	32182	
1992	0	32868	32475	
1993	0	32782	32743	
1994	0	32804	32279	
1995	0	32814	32519	
1996	0	32762	32461	
1997	0	32732	32230	
1998	0	32724	32274	
1999	0	32798	32645	
2000	0	32788	32407	
2001	0	32788	32167	
2002	0	32758	32519	
2003	0	32746	32391	
2004	0	32734	32359	
2005	0	32812	32246	
2006	0	32782	32367	
2007	0	32776	32695	
2008	0	32794	32404	
2009	0	32804	32230	
2010	0	32870	32639	
2011	0	32788	32487	
2012	0	32838	32286	
2013	0	32814	32222	
2014	0	32736	32447	
2015	0	32785	32705	
2016	0	32766	32220	
2017	0	32760	32189	
2018	0	32833	32614	
2019	0	32848	32668	
2020	0	32801	32428	
2021	0	32868	32174	
2022	0	32844	32422	
2023	0	32832	32610	
2024	0	32788	32423	
2025	0	32744	32220	
2026	0	32734	32314	
2027	0	32864	32647	
2028	0	32844	32639	
2029	0	32860	32405	
2030	0	32836	32215	
2031	0	32848	32500	
2032	0	32916	32604	
2033	0	32775	32462	
2034	0	32826	32304	
2035	0	32800	32203	
2036	0	32754	32476	
2037	0	32716	32747	
2038	0	32862	32407	
2039	0	32740	32188	
2040	0	32810	32428	
2041	0	32840	32673	
2042	0	32816	32334	
2043	0	32798	32191	
2044	0	32780	32285	
2045	0	32842	32588	
2046	0	32740	32431	
2047	0	32836	32199	
2048	0	32706	32315	
2049	0	32820	32620	
2050	0	32902	32202	
2051	0	32756	32514	
2052	0	32790	32255	
2053	0	32798	32371	
2054	0	32836	32687	
2055	0	32756	32316	
2056	0	32780	32135	
2057	0	32832	32433	
2058	0	32814	32685	
2059	0	32794	32375	
2060	0	32886	32199	
2061	0	32802	32567	
2062	0	32801	32694	
2063	0	32844	32207	
2064	0	32816	32418	
2065	0	32760	32619	
2066	0	32808	32661	
2067	0	32768	32375	
2068	0	32812	32281	
2069	0	32800	32236	
2070	0	32784	32428	
2071	0	32805	32569	
2072	0	32820	32647	
2073	0	32825	32342	
2074	0	32764	32184	
2075	0	32840	32253	
2076	0	32852	32540	
2077	0	32886	32444	
2078	0	32778	32290	
2079	0	32738	32175	
2080	0	32816	32374	
2081	0	32848	32553	
2082	0	32844	32646	
2083	0	32790	32609	
2084	0	32849	32725	
2085	0	32856	32630	
2086	0	32838	32372	
2087	0	32828	32192	
2088	0	32836	32262	
2089	0	32798	32426	
2090	0	32736	32563	
2091	0	32772	32208	
2092	0	32666	32469	
2093	0	32692	32567	
2094	0	32844	32319	
2095	0	32804	32578	
2096	0	32776	32660	
2097	0	32804	32666	
2098	0	32768	32391	
2099	0	32734	32207	
2100	0	32716	32228	
2101	0	32769	32418	
2102	0	32840	32683	
2103	0	32764	32454	
2104	0	32804	32199	
2105	0	32848	32343	
2106	0	32752	32589	
2107	0	32775	32463	
2108	0	32822	32293	
2109	0	32894	32246	
2110	0	32786	32623	
2111	0	32888	32559	
2112	0	32844	32190	
2113	0	32656	32332	
2114	0	32678	32564	
2115	0	32760	32414	
2116	0	32834	32300	
2117	0	32764	32135	
2118	0	32696	32346	
2119	0	32718	32544	
2120	0	32732	32630	
2121	0	32844	32315	
2122	0	32889	32202	
2123	0	32898	32303	
2124	0	32792	32423	
2125	0	32836	32628	
2126	0	32862	32687	
2127	0	32879	32535	
2128	0	32892	32487	
2129	0	32838	32272	
2130	0	32807	32247	
2131	0	32836	32415	
2132	0	32870	32556	
2133	0	32840	32647	
2134	0	32758	32445	
2135	0	32828	32332	
2136	0	32783	32187	
2137	0	32820	32510	
2138	0	32734	32581	
2139	0	32872	32231	
2140	0	32852	32198	
2141	0	32748	32388	
2142	0	32802	32620	
2143	0	32916	32391	
2144	0	32772	32202	
2145	0	32806	32390	
2146	0	32772	32630	
2147	0	32724	32407	
2148	0	32762	32220	
2149	0	32822	32255	
2150	0	32804	32564	
2151	0	32822	32647	
2152	0	32772	32382	
2153	0	32784	32263	
2154	0	32786	32155	
2155	0	32716	32530	
2156	0	32740	32602	
2157	0	32746	32359	
2158	0	32718	32191	
2159	0	32740	32620	
2160	0	32852	32631	
2161	0	32888	32327	
2162	0	32818	32133	
2163	0	32743	32343	
2164	0	32856	32582	
2165	0	32904	32711	
2166	0	32814	32513	
2167	0	32814	32255	
2168	0	32790	32162	
2169	0	32796	32443	
2170	0	32832	32647	
2171	0	32876	32615	
2172	0	32854	32359	
2173	0	32870	32198	
2174	0	32854	32452	
2175	0	32752	32364	
2176	0	32794	32583	
2177	0	32818	32148	
2178	0	32880	32542	
2179	0	32812	32575	
2180	0	32792	32177	
2181	0	32752	32453	
2182	0	32788	32599	
2183	0	32780	32308	
2184	0	32724	32622	
2185	0	32584	32388	
2186	0	32774	32250	
2187	0	32764	32670	
2188	0	32817	32430	
2189	0	32842	32326	
2190	0	32837	32358	
2191	0	32799	32438	
2192	0	32724	32501	
2193	0	32780	32321	
2194	0	32776	32542	
2195	0	32852	32263	
2196	0	32824	32551	
2197	0	32858	32198	
2198	0	32796	32647	
2199	0	32775	32256	
2200	0	32782	32463	
2201	0	32870	32327	
2202	0	32972	32484	
2203	0	32920	32367	
2204	0	32962	32422	
2205	0	32756	32623	
2206	0	32692	32245	
2207	0	32652	32327	
2208	0	32672	32597	
2209	0	32920	32323	
2210	0	32832	32718	
2211	0	32528	32127	
2212	0	32610	32636	
2213	0	32773	32263	
2214	0	32756	32607	
2215	0	32704	32110	
2216	0	32864	32583	
2217	0	32845	32329	
2218	0	32860	32253	
2219	0	32774	32516	
2220	0	32922	32245	
2221	0	32812	32661	
2222	0	32724	32314	
2223	0	32826	32327	
2224	0	32836	32519	
2225	0	32812	32319	
2226	0	32796	32606	
2227	0	32840	32200	
2228	0	32888	32618	
2229	0	32716	32175	
2230	0	32716	32706	
2231	0	32716	32263	
2232	0	32720	32486	
2233	0	32814	32382	
2234	0	32832	32455	
2235	0	32872	32451	
2236	0	32808	32329	
2237	0	32753	32540	
2238	0	32726	32215	
2239	0	32809	32550	
2240	0	32980	32155	
2241	0	32820	32412	
2242	0	32864	32620	
2243	0	32747	32414	
2244	0	32782	32655	
2245	0	32812	32263	
2246	0	32734	32133	
2247	0	32716	32519	
2248	0	32842	32327	
2249	0	32760	32287	
2250	0	32808	32751	
2251	0	32828	32462	
2252	0	32752	32231	
2253	0	32834	32503	
2254	0	32680	32604	
2255	0	32798	32406	
2256	0	32776	32287	
2257	0	32868	32514	
2258	0	32780	32501	
2259	0	32860	32311	
2260	0	32756	32562	
2261	0	32753	32343	
2262	0	32836	32279	
2263	0	32796	32484	
2264	0	32678	32633	
2265	0	32742	32254	
2266	0	32872	32308	
2267	0	32958	32694	
2268	0	32884	32439	
2269	0	32764	32227	
2270	0	32808	32419	
2271	0	32860	32451	
2272	0	32864	32156	
2273	0	32842	32540	
2274	0	32820	32620	
2275	0	32788	32404	
2276	0	32742	32215	
2277	0	32770	32454	
2278	0	32750	32647	
2279	0	32740	32337	
2280	0	32604	32263	
2281	0	32623	32463	
2282	0	32668	32398	
2283	0	32710	32652	
2284	0	32657	32335	
2285	0	32814	32396	
2286	0	32748	32638	
2287	0	32648	32362	
2288	0	32710	32213	
2289	0	32764	32476	
2290	0	32817	32610	
2291	0	32820	32167	
2292	0	32788	32219	
2293	0	32712	32574	
2294	0	32693	32186	
2295	0	32790	32135	
2296	0	32693	32564	
2297	0	32838	32189	
2298	0	32884	32502	
2299	0	32902	32724	
2300	0	32828	32435	
2301	0	32851	32310	
2302	0	32872	32612	
2303	0	32870	32555	
2304	0	32901	32263	
2305	0	33020	32479	
2306	0	33032	32647	
2307	0	32982	32551	
2308	0	32970	32407	
2309	0	32880	32191	
2310	0	32784	32236	
2311	0	32768	32561	
2312	0	32688	32380	
2313	0	32776	32204	
2314	0	33022	32154	
2315	0	33264	32533	
2316	0	33116	32436	
2317	0	33120	32203	
2318	0	33004	32468	
2319	0	33068	32626	
2320	0	33046	32351	
2321	0	32958	32733	
2322	0	32974	32674	
2323	0	32740	32298	
2324	0	32614	32425	
2325	0	32580	32701	
2326	0	32732	32412	
2327	0	32503	32180	
2328	0	32524	32547	
2329	0	32516	32462	
2330	0	32576	32287	
2331	0	32504	32724	
2332	0	32560	32606	
2333	0	32712	32282	
2334	0	32708	32382	
2335	0	32752	32647	
2336	0	32800	32508	
2337	0	32792	32207	
2338	0	32804	32325	
2339	0	32912	32540	
2340	0	32888	32165	
2341	0	32824	32151	
2342	0	32958	32400	
2343	0	32898	32134	
2344	0	32812	32102	
2345	0	32831	32226	
2346	0	32832	32487	
2347	0	32846	32811	
2348	0	32844	32695	
2349	0	32832	32455	
2350	0	32824	32391	
2351	0	32732	32551	
2352	0	32636	32598	
2353	0	32782	32346	
2354	0	32940	32071	
2355	0	32990	31994	
2356	0	32882	32180	
2357	0	32910	32308	
2358	0	32812	32503	
2359	0	32784	32676	
2360	0	32806	32398	
2361	0	32724	32423	
2362	0	32792	32367	
2363	0	32884	32399	
2364	0	32830	32668	
2365	0	32856	32807	
2366	0	32756	32476	
2367	0	32644	32358	
2368	0	32687	32588	
2369	0	32834	32714	
2370	0	32732	32335	
2371	0	32710	32135	
2372	0	32772	32450	
2373	0	32704	32575	
2374	0	32682	32260	
2375	0	32820	32167	
2376	0	33004	32505	
2377	0	32828	32575	
2378	0	32788	32246	
2379	0	32794	32300	
2380	0	32788	32572	
2381	0	32772	32447	
2382	0	32686	32276	
2383	0	32800	32319	
2384	0	32756	32284	
2385	0	32802	32389	
2386	0	32762	32551	
2387	0	32608	32615	
2388	0	32488	32439	
2389	0	32608	32303	
2390	0	32630	32233	
2391	0	32500	32325	
2392	0	32516	32423	
2393	0	32448	32639	
2394	0	32486	32711	
2395	0	32440	32418	
2396	0	32484	32128	
2397	0	32428	32142	
2398	0	32640	32452	
2399	0	32692	32600	
2400	0	32608	32421	
2401	0	32448	32183	
2402	0	32374	32356	
2403	0	32330	32578	
2404	0	32420	32154	
2405	0	32564	32262	
2406	0	32714	32519	
2407	0	32676	32292	
2408	0	32782	32193	
2409	0	32967	32647	
2410	0	33208	32615	
2411	0	33076	32309	
2412	0	33068	32300	
2413	0	33356	32562	
2414	0	33728	32583	
2415	0	33926	32372	
2416	0	34100	32437	
2417	0	33902	32698	
2418	0	33521	32583	
2419	0	33020	32308	
2420	0	32712	32470	
2421	0	32857	32527	
2422	0	33240	32278	
2423	0	33540	31991	
2424	0	33332	32055	
2425	0	33260	32244	
2426	0	33326	32231	
2427	0	33160	32039	
2428	0	33036	32051	
2429	0	32998	32495	
2430	0	33218	32455	
2431	0	33472	32391	
2432	0	33976	32417	
2433	0	34294	32766	
2434	0	34188	32915	
2435	0	33988	32631	
2436	0	33756	32327	
2437	0	33300	32613	
2438	0	32580	32724	
2439	0	32021	32340	
2440	0	31684	32180	
2441	0	31638	32278	
2442	0	31458	32502	
2443	0	31405	32380	
2444	0	31358	32263	
2445	0	31332	32359	
2446	0	31232	32599	
2447	0	31288	32653	
2448	0	31396	32467	
2449	0	31552	32263	
2450	0	31702	32244	
2451	0	32033	32316	
2452	0	32376	32455	
2453	0	32424	32007	
2454	0	32546	31844	
2455	0	32704	32167	
2456	0	32780	32362	
2457	0	32844	32540	
2458	0	32864	32175	
2459	0	33015	32680	
2460	0	33099	32591	
2461	0	33096	32470	
2462	0	33172	32402	
2463	0	33324	32320	
2464	0	33070	32407	
2465	0	33060	32519	
2466	0	33098	32647	
2467	0	33124	32647	
2468	0	33182	32453	
2469	0	33188	32255	
2470	0	33174	32263	
2471	0	32953	32250	
2472	0	32857	32563	
2473	0	32784	32558	
2474	0	32889	32263	
2475	0	32766	32092	
2476	0	32876	32580	
2477	0	32928	32647	
2478	0	32968	32314	
2479	0	32896	32159	
2480	0	32758	31991	
2481	0	32736	32260	
2482	0	32660	32463	
2483	0	32870	32347	
2484	0	32836	32324	
2485	0	32968	32627	
2486	0	32968	32775	
2487	0	32784	32507	
2488	0	32812	32369	
2489	0	32844	32650	
2490	0	32680	32716	
2491	0	32799	32263	
2492	0	32808	32231	
2493	0	32748	32531	
2494	0	32646	32382	
2495	0	32922	32092	
2496	0	32982	32471	
2497	0	32728	32128	
2498	0	32712	32465	
2499	0	32796	32103	
2500	0	32740	32263	
2501	0	32780	32694	
2502	0	32900	32351	
2503	0	32744	32247	
2504	0	32780	32563	
2505	0	32752	32722	
2506	0	32624	32316	
2507	0	32828	32263	
2508	0	32904	32389	
2509	0	32760	32751	
2510	0	32880	32423	
2511	0	32940	32243	
2512	0	32812	32567	
2513	0	32710	32678	
2514	0	32840	32340	
2515	0	32767	32311	
2516	0	32853	32638	
2517	0	32752	32519	
2518	0	32708	32295	
2519	0	32714	32450	
2520	0	32732	32688	
2521	0	32756	32423	
2522	0	32944	32183	
2523	0	32870	32555	
2524	0	32824	32632	
2525	0	32792	32302	
2526	0	32916	32203	
2527	0	32796	32094	
2528	0	32758	32223	
2529	0	33000	32488	
2530	0	32610	32471	
2531	0	32654	32255	
2532	0	32894	32239	
2533	0	32832	32533	
2534	0	32916	32647	
2535	0	33068	32412	
2536	0	32980	32262	
2537	0	32900	32508	
2538	0	32758	32717	
2539	0	32568	32519	
2540	0	32744	32295	
2541	0	32532	32247	
2542	0	32686	32444	
2543	0	32744	32674	
2544	0	32720	32487	
2545	0	32713	32318	
2546	0	32876	32252	
2547	0	32952	32276	
2548	0	32944	32748	
2549	0	32767	32519	
2550	0	32890	32359	
2551	0	32700	32414	
2552	0	32808	32670	
2553	0	32874	32439	
2554	0	32968	32343	
2555	0	32824	32710	
2556	0	32636	32372	
2557	0	32760	32149	
2558	0	32754	32591	
2559	0	32796	32505	
2560	0	32860	32110	
2561	0	32906	32671	
2562	0	32932	32503	
2563	0	32792	32327	
2564	0	32824	32460	
2565	0	32916	32669	
2566	0	32764	32479	
2567	0	32668	32238	
2568	0	32612	32295	
2569	0	32768	32544	
2570	0	32754	32374	
2571	0	32644	32063	
2572	0	32894	32252	
2573	0	32976	32556	
2574	0	32690	32225	
2575	0	32752	31967	
2576	0	32656	32234	
2577	0	33004	32727	
2578	0	32866	32468	
2579	0	32704	32212	
2580	0	32654	32612	
2581	0	32892	32751	
2582	0	32720	32334	
2583	0	32670	32239	
2584	0	32834	32251	
2585	0	32840	32385	
2586	0	32848	32671	
2587	0	33036	32519	
2588	0	33098	32356	
2589	0	32952	32410	
2590	0	32804	32474	
2591	0	32788	32763	
2592	0	32612	32294	
2593	0	32612	32486	
2594	0	32550	32172	
2595	0	32872	32358	
2596	0	32988	32387	
2597	0	32767	32123	
2598	0	32748	31994	
2599	0	32912	31911	
2600	0	32834	32287	
2601	0	32744	32490	
2602	0	32756	32276	
2603	0	32796	32348	
2604	0	32896	32724	
2605	0	32822	32764	
2606	0	32868	32431	
2607	0	32890	32603	
2608	0	32820	32502	
2609	0	32834	32291	
2610	0	32700	32491	
2611	0	32744	32711	
2612	0	32887	32412	
2613	0	32832	32303	
2614	0	32748	32579	
2615	0	32804	32679	
2616	0	32738	32343	
2617	0	32684	32372	
2618	0	32720	32663	
2619	0	32940	32295	
2620	0	32908	32254	
2621	0	32756	32570	
2622	0	32860	32428	
2623	0	32847	32206	
2624	0	32800	32582	
2625	0	32820	32302	
2626	0	32844	32184	
2627	0	33039	32590	
2628	0	32960	32231	
2629	0	32904	32308	
2630	0	32728	32618	
2631	0	32640	32156	
2632	0	32784	32502	
2633	0	32862	32510	
2634	0	32788	32202	
2635	0	32668	32694	
2636	0	32580	32252	
2637	0	32876	32431	
2638	0	32900	32775	
2639	0	32852	32434	
2640	0	32776	32327	
2641	0	32762	32663	
2642	0	32834	32372	
2643	0	32796	32586	
2644	0	32772	32263	
2645	0	32736	32118	
2646	0	32804	32131	
2647	0	32990	32188	
2648	0	32718	32583	
2649	0	32818	32492	
2650	0	32796	32279	
2651	0	32708	32229	
2652	0	32556	32295	
2653	0	32568	32460	
2654	0	33040	32766	
2655	0	32984	32730	
2656	0	32942	32469	
2657	0	32928	32160	
2658	0	32870	32327	
2659	0	32818	32543	
2660	0	32624	32383	
2661	0	32708	32186	
2662	0	32808	32059	
2663	0	32580	31988	
2664	0	32689	32303	
2665	0	32698	32703	
2666	0	32973	32702	
2667	0	32828	32519	
2668	0	32634	32351	
2669	0	32942	32279	
2670	0	32856	32341	
2671	0	32810	32559	
2672	0	32834	32407	
2673	0	32708	32244	
2674	0	32608	32631	
2675	0	32615	32452	
2676	0	32844	32243	
2677	0	32828	32631	
2678	0	32738	32320	
2679	0	32888	32198	
2680	0	32754	32711	
2681	0	32836	32366	
2682	0	32726	32287	
2683	0	32721	32631	
2684	0	32724	32604	
2685	0	32862	32260	
2686	0	32830	32519	
2687	0	33008	32770	
2688	0	32932	32366	
2689	0	32624	32399	
2690	0	32612	32582	
2691	0	32780	32078	
2692	0	32924	32388	
2693	0	32856	32356	
2694	0	32801	32150	
2695	0	32684	32448	
2696	0	32620	32231	
2697	0	32604	32113	
2698	0	32868	32461	
2699	0	32684	32287	
2700	0	32844	32303	
2701	0	32948	32675	
2702	0	33040	32775	
2703	0	32840	32447	
2704	0	32736	32308	
2705	0	32804	32519	
2706	0	32900	32207	
2707	0	32732	32210	
2708	0	32800	32554	
2709	0	32824	32212	
2710	0	32718	32218	
2711	0	32900	32574	
2712	0	32788	32519	
2713	0	32664	32249	
2714	0	32860	32367	
2715	0	32766	32774	
2716	0	32876	32519	
2717	0	32852	32259	
2718	0	32896	32679	
2719	0	32884	32427	
2720	0	32852	32343	
2721	0	32892	32435	
2722	0	32912	32702	
2723	0	32592	32442	
2724	0	32778	32207	
2725	0	32976	32566	
2726	0	32680	32504	
2727	0	32614	32286	
2728	0	32736	32348	
2729	0	32740	32635	
2730	0	32782	32630	
2731	0	32988	32295	
2732	0	32868	32157	
2733	0	32618	32213	
2734	0	32766	32462	
2735	0	32872	32534	
2736	0	32884	32543	
2737	0	32752	32263	
2738	0	32680	32287	
2739	0	32705	32510	
2740	0	32730	32702	
2741	0	33004	32534	
2742	0	32874	32412	
2743	0	32706	32149	
2744	0	32997	32570	
2745	0	32712	32615	
2746	0	32694	32367	
2747	0	33100	32134	
2748	0	32830	32293	
2749	0	32856	32552	
2750	0	32902	32612	
2751	0	32664	32346	
2752	0	32576	32258	
2753	0	32764	32199	
2754	0	32580	32199	
2755	0	32900	32418	
2756	0	32712	32551	
2757	0	32797	32618	
2758	0	32840	32701	
2759	0	32681	32686	
2760	0	32852	32464	
2761	0	32904	32331	
2762	0	32756	32362	
2763	0	32828	32210	
2764	0	32764	32673	
2765	0	32940	32263	
2766	0	32960	32551	
2767	0	32668	32420	
2768	0	32728	32278	
2769	0	32972	32263	
2770	0	32644	32159	
2771	0	32823	32212	
2772	0	32956	32215	
2773	0	32900	32279	
2774	0	32910	32517	
2775	0	32897	32509	
2776	0	32964	32503	
2777	0	32886	32374	
2778	0	32562	32156	
2779	0	32538	32134	
2780	0	32836	32199	
2781	0	32880	32346	
2782	0	32728	32295	
2783	0	32844	32468	
2784	0	32728	32676	
2785	0	32650	32554	
2786	0	32708	32351	
2787	0	32416	32252	
2788	0	32764	32484	
2789	0	32782	32655	
2790	0	32910	32482	
2791	0	32930	32090	
2792	0	33024	32421	
2793	0	32993	32623	
2794	0	32910	32503	
2795	0	32921	32263	
2796	0	32416	32279	
2797	0	32768	32538	
2798	0	32950	32533	
2799	0	32778	32215	
2800	0	32892	32226	
2801	0	32720	32617	
2802	0	32976	32615	
2803	0	32783	32287	
2804	0	32790	32163	
2805	0	32784	32417	
2806	0	32756	32679	
2807	0	32650	32356	
2808	0	32732	32237	
2809	0	32882	32519	
2810	0	32804	32426	
2811	0	32852	32263	
2812	0	32772	32234	
2813	0	32676	32450	
2814	0	32816	32711	
2815	0	32796	32447	
2816	0	32728	32199	
2817	0	32844	32375	
2818	0	32796	32519	
2819	0	33008	32647	
2820	0	32794	32294	
2821	0	33026	32300	
2822	0	33124	32469	
2823	0	32528	32602	
2824	0	32748	32386	
2825	0	32982	32250	
2826	0	32712	32355	
2827	0	32506	32574	
2828	0	32808	32678	
2829	0	32817	32306	
2830	0	32774	32223	
2831	0	32654	32487	
2832	0	32788	32692	
2833	0	32856	32494	
2834	0	32852	32040	
2835	0	32896	32357	
2836	0	33000	32469	
2837	0	32860	32146	
2838	0	32614	32026	
2839	0	32844	32099	
2840	0	32645	32479	
2841	0	32832	32412	
2842	0	32848	32263	
2843	0	32744	32327	
2844	0	32764	32562	
2845	0	32820	32849	
2846	0	32764	32575	
2847	0	32960	32383	
2848	0	32892	32474	
2849	0	32716	32452	
2850	0	32702	32690	
2851	0	32672	32324	
2852	0	32886	32455	
2853	0	32828	32697	
2854	0	32708	32215	
2855	0	32760	32351	
2856	0	32772	32598	
2857	0	32752	32405	
2858	0	32710	32055	
2859	0	32692	32187	
2860	0	32800	32352	
2861	0	32956	32711	
2862	0	32910	32398	
2863	0	32825	32178	
2864	0	32650	32431	
2865	0	32950	32737	
2866	0	32996	32575	
2867	0	32708	32124	
2868	0	32711	32294	
2869	0	32846	32700	
2870	0	32896	32527	
2871	0	32848	32319	
2872	0	32744	32639	
2873	0	32684	32470	
2874	0	32753	32310	
2875	0	32456	32189	
2876	0	32680	32277	
2877	0	32856	32495	
2878	0	32808	32752	
2879	0	32945	32388	
2880	0	32980	32187	
2881	0	32900	32213	
2882	0	32988	32350	
2883	0	33048	32626	
2884	0	32620	32387	
2885	0	32908	32331	
2886	0	33144	32790	
2887	0	32708	32478	
2888	0	32684	32213	
2889	0	32584	32591	
2890	0	32746	32219	
2891	0	32820	32326	
2892	0	32740	32655	
2893	0	32692	32204	
2894	0	32775	32479	
2895	0	32900	32498	
2896	0	32782	32263	
2897	0	32716	32500	
2898	0	32654	32668	
2899	0	32794	32359	
2900	0	32676	32466	
2901	0	32936	32596	
2902	0	32729	31901	
2903	0	32548	32108	
2904	0	32950	32514	
2905	0	33114	32223	
2906	0	32700	32003	
2907	0	32666	32468	
2908	0	32922	32223	
2909	0	32910	32318	
2910	0	32636	32578	
2911	0	32680	32496	
2912	0	32756	32284	
2913	0	33138	32213	
2914	0	33020	32131	
2915	0	32596	32481	
2916	0	32680	32742	
2917	0	32972	32723	
2918	0	32618	32540	
2919	0	32823	32306	
2920	0	32756	32623	
2921	0	32620	32527	
2922	0	32902	32249	
2923	0	32736	32407	
2924	0	32668	32638	
2925	0	32888	32319	
2926	0	32860	32181	
2927	0	32820	32546	
2928	0	32766	32447	
2929	0	32954	32234	
2930	0	32924	32554	
2931	0	32862	32770	
2932	0	32820	32647	
2933	0	32544	32311	
2934	0	32746	32306	
2935	0	32816	32628	
2936	0	32854	32631	
2937	0	32638	32295	
2938	0	32732	31999	
2939	0	32804	32093	
2940	0	33012	32437	
2941	0	32796	32581	
2942	0	32916	32308	
2943	0	32812	32102	
2944	0	32784	32188	
2945	0	32876	32578	
2946	0	32782	32730	
2947	0	32670	32842	
2948	0	32640	32455	
2949	0	32788	32346	
2950	0	32660	32263	
2951	0	32820	32234	
2952	0	32632	32243	
2953	0	32791	32287	
2954	0	32864	32582	
2955	0	32840	32644	
2956	0	32732	32418	
2957	0	32640	32142	
2958	0	32706	32205	
2959	0	32878	32606	
2960	0	32696	32743	
2961	0	32752	32377	
2962	0	32700	32259	
2963	0	32794	32208	
2964	0	32758	32295	
2965	0	32908	32519	
2966	0	32736	32625	
2967	0	32576	32467	
2968	0	32892	32285	
2969	0	32606	32062	
2970	0	32688	32223	
2971	0	32960	32670	
2972	0	32750	32775	
2973	0	32876	32471	
2974	0	32724	32294	
2975	0	33212	32527	
2976	0	33072	32771	
2977	0	32932	32422	
2978	0	32958	32320	
2979	0	32680	32366	
2980	0	32688	32382	
2981	0	32728	32028	
2982	0	32956	31919	
2983	0	32956	32298	
2984	0	32948	32535	
2985	0	32694	32350	
2986	0	32578	32237	
2987	0	32232	32295	
2988	0	33068	32437	
2989	0	33088	32570	
2990	0	33200	32671	
2991	0	32988	32647	
2992	0	33124	32647	
2993	0	33120	32614	
2994	0	33154	32483	
2995	0	33072	32351	
2996	0	32884	32134	
2997	0	33031	32135	
2998	0	32718	32071	
2999	0	32838	32446	
3000	0	32860	32751	
3001	0	32468	32840	
3002	0	32524	32775	
3003	0	32676	32534	
3004	0	32966	32458	
3005	0	32308	32418	
3006	0	32446	32423	
3007	0	32750	32700	
3008	0	32730	32455	
3009	0	32492	32227	
3010	0	32696	32100	
3011	0	32738	32556	
3012	0	32952	32719	
3013	0	32852	32479	
3014	0	32984	32309	
3015	0	32656	32335	
3016	0	32517	32591	
3017	0	32504	32389	
3018	0	32798	32199	
3019	0	32964	32249	
3020	0	32844	32263	
3021	0	33008	32458	
3022	0	32914	32454	
3023	0	32740	32655	
3024	0	32862	32791	
3025	0	32732	32769	
3026	0	32634	32454	
3027	0	32828	32211	
3028	0	33046	32023	
3029	0	32648	32132	
3030	0	32712	32476	
3031	0	32800	32694	
3032	0	32750	32175	
3033	0	32780	31642	
3034	0	32661	31522	
3035	0	33068	31908	
3036	0	32881	31868	
3037	0	32620	32426	
3038	0	32968	32372	
3039	0	32754	32458	
3040	0	32765	32510	
3041	0	32886	32344	
3042	0	32966	32666	
3043	0	32968	32759	
3044	0	32768	32602	
3045	0	32769	32574	
3046	0	32720	32578	
3047	0	32848	32805	
3048	0	32452	32967	
3049	0	33004	33066	
3050	0	32718	32916	
3051	0	32775	32676	
3052	0	32785	32356	
3053	0	32824	32423	
3054	0	32868	32004	
3055	0	32960	32299	
3056	0	32535	32018	
3057	0	32560	31810	
3058	0	33012	32251	
3059	0	32664	31862	
3060	0	32610	32087	
3061	0	32640	32309	
3062	0	32468	32239	
3063	0	32494	32470	
3064	0	32462	32379	
3065	0	32602	32692	
3066	0	32688	32500	
3067	0	32576	32619	
3068	0	32488	32674	
3069	0	32622	32054	
3070	0	32698	32349	
3071	0	32440	32911	
3072	0	32354	33185	
3073	0	32496	33159	
3074	0	32782	31751	
3075	0	32828	32183	
3076	0	32570	32278	
3077	0	32343	33446	
3078	0	32282	33839	
3079	0	32656	33697	
3080	0	32774	32719	
3081	0	32724	32670	
3082	0	32772	31886	
3083	0	32904	32365	
3084	0	32836	31903	
3085	0	33140	31799	
3086	0	33236	31423	
3087	0	33246	31958	
3088	0	33669	33324	
3089	0	34220	32519	
3090	0	33722	31725	
3091	0	33928	31482	
3092	0	33646	31769	
3093	0	33381	31990	
3094	0	32647	32306	
3095	0	32528	31910	
3096	0	32646	31478	
3097	0	33274	31822	
3098	0	33577	33236	
3099	0	33440	33159	
3100	0	32912	31773	
3101	0	33496	32022	
3102	0	33560	32282	
3103	0	33584	32842	
3104	0	32884	32598	
3105	0	32637	32159	
3106	0	33476	32742	
3107	0	33774	33461	
3108	0	33784	33670	
3109	0	33548	33239	
3110	0	33122	33151	
3111	0	33530	32490	
3112	0	32810	32604	
3113	0	32408	32694	
3114	0	31876	32302	
3115	0	31884	32164	
3116	0	31832	32487	
3117	0	31584	32439	
3118	0	31428	32088	
3119	0	31560	32027	
3120	0	31768	32444	
3121	0	31811	32310	
3122	0	31708	32127	
3123	0	32021	32375	
3124	0	31834	32571	
3125	0	32162	32380	
3126	0	32158	32287	
3127	0	32396	32708	
3128	0	32556	32263	
3129	0	32785	32729	
3130	0	32484	32540	
3131	0	32824	32135	
3132	0	32884	32351	
3133	0	32600	32324	
3134	0	32988	32050	
3135	0	32824	32460	
3136	0	32998	32086	
3137	0	33306	31844	
3138	0	33240	32204	
3139	0	33012	32167	
3140	0	32807	32127	
3141	0	33010	32423	
3142	0	33184	32763	
3143	0	33087	32447	
3144	0	33196	32398	
3145	0	32978	32633	
3146	0	33269	32437	
3147	0	32884	32238	
3148	0	32814	32623	
3149	0	32884	32443	
3150	0	32664	32254	
3151	0	32745	32583	
3152	0	32926	32330	
3153	0	33060	32519	
3154	0	32788	32719	
3155	0	32928	32347	
3156	0	32916	32396	
3157	0	32724	32655	
3158	0	32638	32710	
3159	0	32726	32519	
3160	0	33000	32324	
3161	0	32558	32324	
3162	0	32832	32316	
3163	0	32765	32703	
3164	0	32892	32366	
3165	0	32756	32135	
3166	0	32862	32311	
3167	0	32920	32519	
3168	0	32738	32222	
3169	0	33068	32135	
3170	0	32944	32334	
3171	0	32682	32601	
3172	0	32690	32404	
3173	0	32608	32418	
3174	0	32932	32602	
3175	0	32948	32671	
3176	0	32740	32319	
3177	0	32726	32747	
3178	0	32950	32327	
3179	0	32696	32359	
3180	0	32778	32740	
3181	0	32676	32234	
3182	0	32736	32174	
3183	0	32812	32606	
3184	0	32774	32375	
3185	0	32985	32319	
3186	0	32732	32511	
3187	0	32940	32766	
3188	0	32884	32686	
3189	0	32724	32620	
3190	0	32806	32604	
3191	0	32822	32664	
3192	0	32542	32602	
3193	0	33060	32191	
3194	0	32840	31914	
3195	0	32842	31823	
3196	0	32444	31964	
3197	0	32717	32228	
3198	0	32520	32091	
3199	0	32646	31938	
3200	0	32736	31947	
3201	0	33048	32451	
3202	0	32917	32671	
3203	0	32744	32519	
3204	0	32820	32365	
3205	0	32978	32499	
3206	0	32909	32667	
3207	0	32840	32847	
3208	0	32910	32450	
3209	0	32806	32423	
3210	0	32810	32420	
3211	0	32652	32807	
3212	0	32757	32719	
3213	0	32725	32303	
3214	0	32775	32124	
3215	0	33044	32364	
3216	0	32694	32226	
3217	0	32760	32775	
3218	0	32868	32453	
3219	0	32768	32247	
3220	0	32656	32676	
3221	0	32781	32543	
3222	0	32952	32255	
3223	0	32916	32507	
3224	0	32892	32182	
3225	0	32752	32482	
3226	0	32884	32547	
3227	0	32788	32663	
3228	0	32814	32431	
3229	0	32812	32735	
3230	0	32688	32242	
3231	0	32788	32487	
3232	0	32740	32326	
3233	0	32852	32199	
3234	0	32737	32263	
3235	0	32860	31873	
3236	0	32760	32245	
3237	0	32650	32330	
3238	0	32740	32037	
3239	0	33014	32515	
3240	0	32922	32546	
3241	0	32672	32287	
3242	0	32768	32626	
3243	0	32804	32879	
3244	0	32792	32628	
3245	0	32872	32810	
3246	0	33176	32743	
3247	0	32800	32508	
3248	0	33004	32606	
3249	0	32852	32017	
3250	0	32618	32018	
3251	0	32652	31983	
3252	0	32476	31663	
3253	0	32606	32158	
3254	0	32663	31935	
3255	0	32648	32382	
3256	0	32986	32516	
3257	0	32996	32246	
3258	0	32820	32736	
3259	0	32794	32243	
3260	0	32682	32575	
3261	0	32752	32786	
3262	0	32974	32490	
3263	0	32775	32738	
3264	0	32808	32263	
3265	0	33036	32391	
3266	0	32816	32350	
3267	0	32792	32552	
3268	0	32692	32643	
3269	0	32656	32420	
3270	0	33040	32559	
3271	0	32969	32286	
3272	0	32801	32603	
3273	0	32838	32004	
3274	0	32856	32391	
3275	0	32801	32279	
3276	0	32660	32246	
3277	0	32794	32422	
3278	0	32839	32479	
3279	0	32789	32386	
3280	0	32612	32318	
3281	0	32852	32596	
3282	0	32812	32547	
3283	0	32852	32354	
3284	0	32726	32332	
3285	0	32945	32352	
3286	0	33004	32507	
3287	0	32980	32695	
3288	0	32702	32295	
3289	0	32704	32302	
3290	0	32944	32254	
3291	0	32540	32299	
3292	0	32724	32679	
3293	0	32842	32600	
3294	0	32864	32351	
3295	0	32704	32366	
3296	0	32852	32591	
3297	0	32702	32363	
3298	0	32614	32223	
3299	0	32837	32313	
3300	0	32936	32486	
3301	0	32852	32219	
3302	0	32868	32150	
3303	0	32982	32657	
3304	0	32740	32830	
3305	0	32748	32430	
3306	0	33122	32315	
3307	0	33000	32559	
3308	0	32548	32667	
3309	0	32504	32263	
3310	0	32549	32175	
3311	0	32902	32511	
3312	0	32816	32492	
3313	0	32736	32242	
3314	0	32886	32332	
3315	0	32804	32628	
3316	0	32685	32354	
3317	0	32682	32247	
3318	0	32928	32532	
3319	0	32940	32636	
3320	0	32798	32303	
3321	0	32880	32188	
3322	0	32808	32616	
3323	0	32868	32487	
3324	0	32930	32214	
3325	0	32724	32285	
3326	0	32774	32545	
3327	0	32848	32368	
3328	0	32820	32222	
3329	0	32528	32145	
3330	0	32976	32206	
3331	0	32888	32542	
3332	0	32645	32618	
3333	0	32966	32439	
3334	0	32864	32640	
3335	0	32652	32263	
3336	0	32812	32722	
3337	0	32864	32278	
3338	0	32720	32573	
3339	0	32625	32418	
3340	0	32916	32423	
3341	0	32852	32284	
3342	0	32662	32199	
3343	0	32608	32356	
3344	0	32860	32686	
3345	0	32792	32839	
3346	0	32717	32660	
3347	0	32774	32555	
3348	0	32652	32405	
3349	0	32724	32542	
3350	0	32964	32621	
3351	0	33012	32214	
3352	0	32860	31799	
3353	0	32800	31743	
3354	0	32688	31895	
3355	0	32828	32115	
3356	0	32804	32356	
3357	0	32716	32591	
3358	0	32750	32735	
3359	0	32598	32743	
3360	0	33052	32559	
3361	0	32846	32446	
3362	0	32608	32311	
3363	0	32840	32703	
3364	0	32744	32775	
3365	0	32772	32391	
3366	0	32820	32358	
3367	0	32808	32519	
3368	0	32994	32513	
3369	0	32961	32415	
3370	0	32700	32230	
3371	0	32748	32615	
3372	0	32775	32326	
3373	0	32792	32317	
3374	0	33024	32639	
3375	0	32664	32226	
3376	0	32789	32519	
3377	0	32864	32635	
3378	0	32812	32276	
3379	0	32794	32740	
3380	0	32934	32276	
3381	0	33058	32545	
3382	0	32816	32472	
3383	0	32794	32263	
3384	0	32618	32419	
3385	0	32823	32010	
3386	0	32719	32481	
3387	0	32800	32335	
3388	0	32746	32242	
3389	0	32800	32891	
3390	0	32866	32497	
3391	0	32968	32439	
3392	0	32816	32710	
3393	0	32727	32167	
3394	0	32894	32236	
3395	0	32922	31931	
3396	0	32840	32007	
3397	0	32852	32051	
3398	0	32680	32124	
3399	0	32671	32391	
3400	0	32608	32594	
3401	0	32908	32726	
3402	0	32780	32607	
3403	0	32782	32367	
3404	0	33116	32295	
3405	0	32804	32263	
3406	0	32856	32410	
3407	0	32804	32742	
3408	0	32868	32559	
3409	0	32820	32278	
3410	0	32724	32334	
3411	0	32926	32669	
3412	0	32802	32708	
3413	0	32732	32327	
3414	0	32784	32028	
3415	0	32814	32508	
3416	0	32612	32726	
3417	0	32448	32647	
3418	0	32756	32358	
3419	0	32988	32363	
3420	0	32972	32546	
3421	0	32840	32636	
3422	0	32738	32308	
3423	0	32801	32071	
3424	0	32932	32221	
3425	0	32558	32526	
3426	0	32708	32276	
3427	0	32848	32287	
3428	0	32828	32775	
3429	0	32906	32439	
3430	0	32774	32452	
3431	0	32796	32715	
3432	0	32794	32433	
3433	0	32872	32247	
3434	0	32876	32482	
3435	0	32716	32655	
3436	0	32904	32360	
3437	0	32598	32135	
3438	0	32684	32311	
3439	0	32832	32639	
3440	0	32864	32714	
3441	0	32852	32259	
3442	0	32928	31983	
3443	0	32794	32334	
3444	0	32960	32542	
3445	0	32520	32151	
3446	0	32726	32334	
3447	0	32760	32289	
3448	0	32877	32566	
3449	0	32840	32602	
3450	0	32896	32463	
3451	0	32736	32236	
3452	0	32725	32340	
3453	0	32784	31879	
3454	0	32821	32188	
3455	0	32608	32119	
3456	0	32852	32375	
3457	0	32992	32309	
3458	0	32870	32580	
3459	0	32994	32881	
3460	0	32576	32563	
3461	0	32680	32412	
3462	0	32766	32613	
3463	0	32664	32859	
3464	0	32768	32380	
3465	0	32922	32341	
3466	0	32820	32647	
3467	0	32916	32599	
3468	0	32792	32488	
3469	0	32956	32214	
3470	0	32940	32237	
3471	0	32828	32596	
3472	0	32848	32687	
3473	0	32788	32398	
3474	0	32924	32415	
3475	0	32660	32551	
3476	0	32622	32563	
3477	0	32764	32193	
3478	0	32548	32003	
3479	0	32824	32445	
3480	0	32847	32351	
3481	0	32734	32097	
3482	0	32785	32465	
3483	0	32926	32652	
3484	0	32628	32287	
3485	0	32747	32196	
3486	0	32831	32471	
3487	0	32900	32775	
3488	0	32892	32750	
3489	0	32896	32509	
3490	0	32616	32373	
3491	0	32828	32303	
3492	0	32868	32390	
3493	0	32866	32462	
3494	0	32812	32383	
3495	0	32757	32135	
3496	0	32840	31876	
3497	0	32692	32286	
3498	0	32704	32566	
3499	0	33034	32846	
3500	0	32932	32766	
3501	0	32820	32586	
3502	0	32472	32363	
3503	0	32916	32295	
3504	0	32828	32563	
3505	0	32716	32668	
3506	0	32950	32511	
3507	0	32828	32373	
3508	0	32624	32350	
3509	0	32750	32485	
3510	0	32758	32634	
3511	0	32888	32647	
3512	0	32972	32470	
3513	0	32600	32360	
3514	0	32500	32167	
3515	0	32924	32167	
3516	0	32854	32215	
3517	0	33024	32146	
3518	0	32684	32124	
3519	0	32746	32055	
3520	0	32775	32161	
3521	0	32724	32405	
3522	0	32870	32613	
3523	0	32872	32796	
3524	0	32876	32639	
3525	0	32846	32420	
3526	0	32773	32368	
3527	0	32904	32609	
3528	0	32970	32607	
3529	0	32848	32246	
3530	0	32728	32186	
3531	0	32785	32582	
3532	0	32808	32679	
3533	0	32824	32412	
3534	0	32900	32294	
3535	0	32740	32190	
3536	0	32615	32362	
3537	0	32703	32164	
3538	0	32814	32263	
3539	0	32912	32631	
3540	0	32996	32609	
3541	0	32636	32740	
3542	0	32586	32535	
3543	0	32752	32367	
3544	0	32830	32212	
3545	0	32775	32507	
3546	0	32760	32222	
3547	0	32872	32699	
3548	0	32922	32542	
3549	0	32824	32295	
3550	0	32678	32711	
3551	0	32816	32455	
3552	0	32952	32335	
3553	0	32806	32747	
3554	0	32660	32462	
3555	0	32814	32403	
3556	0	32853	32678	
3557	0	32736	32540	
3558	0	32708	32244	
3559	0	32771	32444	
3560	0	32889	32517	
3561	0	32666	32116	
3562	0	32900	32562	
3563	0	32868	31998	
3564	0	32856	32183	
3565	0	32708	32043	
3566	0	32673	32371	
3567	0	32908	32278	
3568	0	32976	32317	
3569	0	32668	32416	
3570	0	32834	32583	
3571	0	32648	32635	
3572	0	32876	32647	
3573	0	32958	32294	
3574	0	32900	32186	
3575	0	32812	32215	
3576	0	32686	32223	
3577	0	33028	32311	
3578	0	32574	32500	
3579	0	32836	32714	
3580	0	32844	32680	
3581	0	32860	32429	
3582	0	32676	32156	
3583	0	32840	32107	
3584	0	32860	32366	
3585	0	32788	32466	
3586	0	32744	32690	
3587	0	32844	32546	
3588	0	32926	32399	
3589	0	32800	32222	
3590	0	32688	32191	
3591	0	32676	32463	
3592	0	32698	32551	
3593	0	32720	32690	
3594	0	32936	32438	
3595	0	32810	32263	
3596	0	32800	32310	
3597	0	32756	32549	
3598	0	32761	32340	
3599	0	32705	32379	
3600	0	32820	32723	
3601	0	32920	32174	
3602	0	32888	32676	
3603	0	32846	32380	
3604	0	32928	32230	
3605	0	32860	32710	
3606	0	32869	32391	
3607	0	32662	32452	
3608	0	32728	32538	
3609	0	32808	32239	
3610	0	32620	32706	
3611	0	32608	32161	
3612	0	32953	32207	
3613	0	32928	32479	
3614	0	32862	32156	
3615	0	32592	32390	
3616	0	32876	32564	
3617	0	32808	32506	
3618	0	32943	32172	
3619	0	32948	32247	
3620	0	32640	32391	
3621	0	32810	32606	
3622	0	32870	32730	
3623	0	32914	32791	
3624	0	32869	32599	
3625	0	32766	32533	
3626	0	32858	32357	
3627	0	32900	32327	
3628	0	32580	32204	
3629	0	32860	32351	
3630	0	32972	32499	
3631	0	32761	32519	
3632	0	32734	32631	
3633	0	32684	32348	
3634	0	32644	32245	
3635	0	32588	32199	
3636	0	32436	32162	
3637	0	32540	32213	
3638	0	32790	32287	
3639	0	32724	32263	
3640	0	32688	32615	
3641	0	32506	32638	
3642	0	32940	32410	
3643	0	32728	32263	
3644	0	32748	32385	
3645	0	32813	32476	
3646	0	32900	32247	
3647	0	32968	31990	
3648	0	32756	32288	
3649	0	32884	32535	
3650	0	32988	32348	
3651	0	32892	32199	
3652	0	32876	32362	
3653	0	32822	32638	
3654	0	32876	32583	
3655	0	32822	32335	
3656	0	32988	32335	
3657	0	32874	32143	
3658	0	32916	32077	
3659	0	32745	32646	
3660	0	32812	32411	
3661	0	32704	32749	
3662	0	32704	32487	
3663	0	32928	32622	
3664	0	32920	32775	
3665	0	32988	32303	
3666	0	33008	32286	
3667	0	33084	32606	
3668	0	33072	32614	
3669	0	32926	32378	
3670	0	32860	32433	
3671	0	33004	32618	
3672	0	33066	32110	
3673	0	32838	32122	
3674	0	32908	32529	
3675	0	32596	32303	
3676	0	32660	32006	
3677	0	32486	32085	
3678	0	32688	32300	
3679	0	32794	32687	
3680	0	32692	32329	
3681	0	32440	32672	
3682	0	32422	32766	
3683	0	32447	32300	
3684	0	32681	32178	
3685	0	32814	32562	
3686	0	32748	32340	
3687	0	32736	32085	
3688	0	32988	32334	
3689	0	32948	32551	
3690	0	32810	32307	
3691	0	32708	32254	
3692	0	32932	32415	
3693	0	32768	32751	
3694	0	32730	32647	
3695	0	32970	32378	
3696	0	33008	32445	
3697	0	32974	32711	
3698	0	32784	32696	
3699	0	32758	32258	
3700	0	32672	32091	
3701	0	32620	32239	
3702	0	32734	32583	
3703	0	32932	32631	
3704	0	32773	32313	
3705	0	32744	32327	
3706	0	32936	32594	
3707	0	32876	32674	
3708	0	32706	32407	
3709	0	32984	32226	
3710	0	32932	32332	
3711	0	32816	32535	
3712	0	32780	32439	
3713	0	32764	32102	
3714	0	32775	32255	
3715	0	32764	32542	
3716	0	32756	32718	
3717	0	32808	32411	
3718	0	33116	32038	
3719	0	32844	32038	
3720	0	32785	32238	
3721	0	32798	32316	
3722	0	32831	32314	
3723	0	32824	32334	
3724	0	32706	32355	
3725	0	32560	32533	
3726	0	32713	32718	
3727	0	32780	32741	
3728	0	32977	32638	
3729	0	32844	32582	
3730	0	32636	32478	
3731	0	32832	32519	
3732	0	32854	32263	
3733	0	32684	32278	
3734	0	32784	32374	
3735	0	32806	32391	
3736	0	32684	32305	
3737	0	32556	32252	
3738	0	32788	32342	
3739	0	32622	32455	
3740	0	32508	32416	
3741	0	32584	32487	
3742	0	32456	32299	
3743	0	32444	32251	
3744	0	32540	32167	
3745	0	32438	32511	
3746	0	32436	32743	
3747	0	32384	32442	
3748	0	32594	32199	
3749	0	32554	32375	
3750	0	32708	32615	
3751	0	32740	32775	
3752	0	32568	32751	
3753	0	32512	32412	
3754	0	32504	32223	
3755	0	32412	32383	
3756	0	32516	32530	
3757	0	32620	32519	
3758	0	32690	32383	
3759	0	32648	32255	
3760	0	33313	32071	
3761	0	33236	32319	
3762	0	33044	32577	
3763	0	33276	32721	
3764	0	33428	32586	
3765	0	33832	32551	
3766	0	33934	32294	
3767	0	34060	32253	
3768	0	33994	32007	
3769	0	33608	31923	
3770	0	33272	32382	
3771	0	32990	32167	
3772	0	33104	32519	
3773	0	33502	32068	
3774	0	33568	32423	
3775	0	33436	32572	
3776	0	33388	32311	
3777	0	33304	32335	
3778	0	33152	32823	
3779	0	33088	32622	
3780	0	33084	32295	
3781	0	32960	32260	
3782	0	33420	32625	
3783	0	33596	32426	
3784	0	33724	32437	
3785	0	33638	32539	
3786	0	33242	32151	
3787	0	32932	32407	
3788	0	32652	32535	
3789	0	32280	32509	
3790	0	31884	32327	
3791	0	31514	32106	
3792	0	31524	32466	
3793	0	31328	32084	
3794	0	31360	32399	
3795	0	31410	32447	
3796	0	31452	32277	
3797	0	31676	32735	
3798	0	31740	32300	
3799	0	31872	32847	
3800	0	31868	32263	
3801	0	31968	32292	
3802	0	32134	32343	
3803	0	32372	32442	
3804	0	32664	32291	
3805	0	32534	32103	
3806	0	32644	32007	
3807	0	32856	32082	
3808	0	32924	32539	
3809	0	33058	32626	
3810	0	33112	32079	
3811	0	33134	32514	
3812	0	33112	32729	
3813	0	33240	32263	
3814	0	33164	32487	
3815	0	33236	32711	
3816	0	33176	32367	
3817	0	33088	32263	
3818	0	32964	32623	
3819	0	33060	32396	
3820	0	33049	32180	
3821	0	33004	32568	
3822	0	32982	32544	
3823	0	32972	32234	
3824	0	32836	32384	
3825	0	32904	32703	
3826	0	32862	32282	
3827	0	32934	32623	
3828	0	32901	32722	
3829	0	32906	32298	
3830	0	32768	32223	
3831	0	32736	32692	
3832	0	32946	32487	
3833	0	32662	32323	
3834	0	32794	32115	
3835	0	32762	31994	
3836	0	32796	32190	
3837	0	32846	32520	
3838	0	32900	32734	
3839	0	32620	32340	
3840	0	32983	32321	
3841	0	32924	32727	
3842	0	32620	32351	
3843	0	32858	32287	
3844	0	32912	32263	
3845	0	32692	32463	
3846	0	32646	32487	
3847	0	32992	32358	
3848	0	32886	32364	
3849	0	32856	32436	
3850	0	32856	32383	
3851	0	32840	32484	
3852	0	32804	32602	
3853	0	32838	32634	
3854	0	32706	32556	
3855	0	32680	32348	
3856	0	32668	32102	
3857	0	32614	32123	
3858	0	32828	32452	
3859	0	32816	32508	
3860	0	32708	32243	
3861	0	32929	32263	
3862	0	32933	32422	
3863	0	32764	32603	
3864	0	32788	32582	
3865	0	32796	32455	
3866	0	32724	32292	
3867	0	32836	32511	
3868	0	32862	32246	
3869	0	32894	32626	
3870	0	32928	32775	
3871	0	32862	32491	
3872	0	32775	32238	
3873	0	32798	32487	
3874	0	32760	32160	
3875	0	32812	32743	
3876	0	32796	32604	
3877	0	32735	32519	
3878	0	32942	32321	
3879	0	32616	32114	
3880	0	33034	32026	
3881	0	32732	32127	
3882	0	32714	32391	
3883	0	32702	32535	
3884	0	32796	32563	
3885	0	32830	32448	
3886	0	32794	32335	
3887	0	32992	32383	
3888	0	32852	32582	
3889	0	32876	32775	
3890	0	32748	32359	
3891	0	32754	32296	
3892	0	32878	32596	
3893	0	33020	32743	
3894	0	32716	32243	
3895	0	32474	32467	
3896	0	32610	32263	
3897	0	32684	31964	
3898	0	32868	32156	
3899	0	32876	32422	
3900	0	32860	32499	
3901	0	32744	32559	
3902	0	32828	32551	
3903	0	32860	32545	
3904	0	32794	32695	
3905	0	32950	32774	
3906	0	32782	32735	
3907	0	32668	32562	
3908	0	32520	32434	
3909	0	32892	32349	
3910	0	32924	32295	
3911	0	32864	32391	
3912	0	32674	32535	
3913	0	32926	32394	
3914	0	32836	32576	
3915	0	32850	32327	
3916	0	32806	32671	
3917	0	32816	32319	
3918	0	32836	32199	
3919	0	32772	32479	
3920	0	32847	32164	
3921	0	32768	31847	
3922	0	32794	32342	
3923	0	32871	32567	
3924	0	32894	32363	
3925	0	32814	32503	
3926	0	32788	32855	
3927	0	32732	32766	
3928	0	32794	32439	
3929	0	32722	32250	
3930	0	32642	32511	
3931	0	32848	32713	
3932	0	32884	32331	
3933	0	32888	32222	
3934	0	32696	32314	
3935	0	32754	32559	
3936	0	32832	32687	
3937	0	32776	32193	
3938	0	32778	31952	
3939	0	32812	32402	
3940	0	32841	32381	
3941	0	32864	32151	
3942	0	32988	32332	
3943	0	32876	32628	
3944	0	32721	32391	
3945	0	32704	32455	
3946	0	32744	32744	
3947	0	32738	32676	
3948	0	32600	32369	
3949	0	32830	32263	
3950	0	32756	32572	
3951	0	32784	32487	
3952	0	32726	32276	
3953	0	32880	32220	
3954	0	32900	32391	
3955	0	32826	32577	
3956	0	32976	32447	
3957	0	32804	32283	
3958	0	32816	32746	
3959	0	32764	32351	
3960	0	32820	32391	
3961	0	32876	32683	
3962	0	32746	32303	
3963	0	33104	32325	
3964	0	32796	32743	
3965	0	32800	32494	
3966	0	32911	32243	
3967	0	32868	32263	
3968	0	32884	32620	
3969	0	32684	32516	
3970	0	32756	32371	
3971	0	32760	32438	
3972	0	32792	32460	
3973	0	32804	32039	
3974	0	32768	31860	
3975	0	32694	32244	
3976	0	32692	32414	
3977	0	32772	32299	
3978	0	32838	32095	
3979	0	32776	32418	
3980	0	32802	32737	
3981	0	32864	32503	
3982	0	32844	32478	
3983	0	32924	32771	
3984	0	32920	32631	
3985	0	32760	32484	
3986	0	32902	32775	
3987	0	32791	32482	
3988	0	32692	32142	
3989	0	32647	32250	
3990	0	32674	32449	
3991	0	32912	32141	
3992	0	32972	32103	
3993	0	32794	32475	
3994	0	32892	32487	
3995	0	32914	32347	
3996	0	32942	32583	
3997	0	32910	32822	
3998	0	32806	32495	
3999	0	32908	32385	
4000	0	32752	32722	
4001	0	32676	32689	
4002	0	32792	32467	
4003	0	32782	32131	
4004	0	32772	32140	
4005	0	32638	32204	
4006	0	33038	32355	
4007	0	32700	32358	
4008	0	32770	32482	
4009	0	32772	32351	
4010	0	32804	32444	
4011	0	32784	32397	
4012	0	32756	32335	
4013	0	32796	32191	
4014	0	32684	32279	
4015	0	32772	32511	
4016	0	32800	32612	
4017	0	32860	32660	
4018	0	32812	32291	
4019	0	32756	32223	
4020	0	32740	32606	
4021	0	32788	32836	
4022	0	32946	32485	
4023	0	32734	32213	
4024	0	32646	32206	
4025	0	32682	32483	
4026	0	32752	32518	
4027	0	32788	32655	
4028	0	32740	32319	
4029	0	32780	32718	
4030	0	32720	32423	
4031	0	32782	32315	
4032	0	32996	32639	
4033	0	32500	32126	
4034	0	32744	32287	
4035	0	32792	32594	
4036	0	32608	32196	
4037	0	32846	32488	
4038	0	32852	32702	
4039	0	32796	32214	
4040	0	32856	32497	
4041	0	32848	32076	
4042	0	32924	32263	
4043	0	32886	32487	
4044	0	32692	32087	
4045	0	32834	32299	
4046	0	32848	32661	
4047	0	32881	32282	
4048	0	32834	32698	
4049	0	32815	32519	
4050	0	32750	32385	
4051	0	32844	32504	
4052	0	32844	32244	
4053	0	32904	32364	
4054	0	32832	32638	
4055	0	32710	32725	
4056	0	32810	32196	
4057	0	32848	32228	
4058	0	32814	32516	
4059	0	32814	32581	
4060	0	32790	32247	
4061	0	32754	32165	
4062	0	32860	32386	
4063	0	32854	32631	
4064	0	32788	32839	
4065	0	32807	32700	
4066	0	32940	32388	
4067	0	32894	32358	
4068	0	32800	32263	
4069	0	32922	32723	
4070	0	32792	32246	
4071	0	32712	31939	
4072	0	32692	32263	
4073	0	32746	32575	
4074	0	32781	32353	
4075	0	32614	32487	
4076	0	32756	32847	
4077	0	32788	32409	
4078	0	32822	32148	
4079	0	32847	32532	
4080	0	32756	32404	
4081	0	32906	32196	
4082	0	32828	32359	
4083	0	32801	32559	
4084	0	32845	32190	
4085	0	32788	32140	
4086	0	32792	32535	
4087	0	32832	32639	
4088	0	32838	32407	
4089	0	32814	32283	
4090	0	32818	32359	
4091	0	32834	32617	
4092	0	32892	32695	
4093	0	32744	32454	
4094	0	32752	32231	
4095	0	32646	32167	
4096	0	32932	32389	
4097	0	32900	32477	
4098	0	32782	32230	
4099	0	32756	32247	
4100	0	32728	32644	
4101	0	32764	32870	
4102	0	32792	32443	
4103	0	32860	32380	
4104	0	32776	32666	
4105	0	32674	32093	
4106	0	32892	32190	
4107	0	32808	32572	
4108	0	32822	32478	
4109	0	32856	32191	
4110	0	32762	32231	
4111	0	32804	32677	
4112	0	32848	32414	
4113	0	32842	32380	
4114	0	32852	32603	
4115	0	32732	32164	
4116	0	32804	32638	
4117	0	32746	32565	
4118	0	32802	32600	
4119	0	32894	32408	
4120	0	32684	32383	
4121	0	32686	32276	
4122	0	32736	32327	
4123	0	32820	32551	
4124	0	32908	32663	
4125	0	32784	32527	
4126	0	32772	32308	
4127	0	32767	32226	
4128	0	32840	32599	
4129	0	32764	32751	
4130	0	32616	32458	
4131	0	32896	32358	
4132	0	32831	32678	
4133	0	32894	32687	
4134	0	32764	32373	
4135	0	32812	32339	
4136	0	32716	32188	
4137	0	32670	32283	
4138	0	32882	32179	
4139	0	32912	32154	
4140	0	32812	32582	
4141	0	32840	32519	
4142	0	32857	32263	
4143	0	32824	32134	
4144	0	32812	32519	
4145	0	32738	32687	
4146	0	32744	32135	
4147	0	32929	32052	
4148	0	32817	31879	
4149	0	32839	32182	
4150	0	32948	32599	
4151	0	32836	32738	
4152	0	32806	32807	
4153	0	32748	32388	
4154	0	32748	32226	
4155	0	32736	32036	
4156	0	32634	32366	
4157	0	32786	32750	
4158	0	32849	32860	
4159	0	32772	32575	
4160	0	32776	32427	
4161	0	32604	32311	
4162	0	32688	32222	
4163	0	32808	32391	
4164	0	32860	32719	
4165	0	32846	32556	
4166	0	32900	32220	
4167	0	32862	32245	
4168	0	32852	32687	
4169	0	32834	32538	
4170	0	32892	32351	
4171	0	32812	32423	
4172	0	32752	32487	
4173	0	32848	32251	
4174	0	32810	32276	
4175	0	32816	32276	
4176	0	32821	32231	
4177	0	32714	32095	
4178	0	32696	32540	
4179	0	32710	32159	
4180	0	32776	32543	
4181	0	32838	32158	
4182	0	32834	32327	
4183	0	32786	32231	
4184	0	32897	32071	
4185	0	32729	32116	
4186	0	32728	32227	
4187	0	32852	32415	
4188	0	33000	32350	
4189	0	32884	32334	
4190	0	32775	32223	
4191	0	32764	32550	
4192	0	32753	32562	
4193	0	32866	32368	
4194	0	32912	32342	
4195	0	32800	32295	
4196	0	32722	32415	
4197	0	32868	32646	
4198	0	32932	32765	
4199	0	32908	32409	
4200	0	32834	32284	
4201	0	32744	32490	
4202	0	32724	32711	
4203	0	32820	32615	
4204	0	32828	32396	
4205	0	32764	32198	
4206	0	32756	32519	
4207	0	32692	32226	
4208	0	32804	32519	
4209	0	32760	32084	
4210	0	32832	32566	
4211	0	32812	32167	
4212	0	32830	32675	
4213	0	32786	32237	
4214	0	32864	32695	
4215	0	32897	32167	
4216	0	32842	32724	
4217	0	32676	32230	
4218	0	32812	32750	
4219	0	32804	32263	
4220	0	32798	32455	
4221	0	32680	32134	
4222	0	32744	32348	
4223	0	32808	32350	
4224	0	32782	32124	
4225	0	32788	32471	
4226	0	32770	32673	
4227	0	32814	32775	
4228	0	32772	32574	
4229	0	32746	32556	
4230	0	32704	32695	
4231	0	32732	32559	
4232	0	32824	32447	
4233	0	32738	32308	
4234	0	32815	32190	
4235	0	32816	32020	
4236	0	32776	31959	
4237	0	32720	31855	
4238	0	32846	31834	
4239	0	32902	32284	
4240	0	32892	32631	
4241	0	32746	32420	
4242	0	32892	32636	
4243	0	32944	32487	
4244	0	32782	32459	
4245	0	32892	32411	
4246	0	32880	32436	
4247	0	32842	32361	
4248	0	32768	32375	
4249	0	32752	32279	
4250	0	32688	32338	
4251	0	32801	32310	
4252	0	32696	32609	
4253	0	32798	32736	
4254	0	32816	32596	
4255	0	32836	32550	
4256	0	32807	32422	
4257	0	32700	32218	
4258	0	32868	32086	
4259	0	32680	32263	
4260	0	32744	32238	
4261	0	32792	32163	
4262	0	32928	32206	
4263	0	32835	32420	
4264	0	32860	32596	
4265	0	32820	32637	
4266	0	32916	32735	
4267	0	32718	32615	
4268	0	32796	32431	
4269	0	32796	32346	
4270	0	32876	32167	
4271	0	32904	32206	
4272	0	32728	32292	
4273	0	32708	32231	
4274	0	32889	32406	
4275	0	32936	32655	
4276	0	32720	32606	
4277	0	32655	32679	
4278	0	32718	32666	
4279	0	32757	32519	
4280	0	32764	32231	
4281	0	32812	32092	
4282	0	32764	32252	
4283	0	32740	32743	
4284	0	32688	32309	
4285	0	32836	32543	
4286	0	32828	32290	
4287	0	32652	32527	
4288	0	32858	32500	
4289	0	32867	32501	
4290	0	32834	32387	
4291	0	32854	32388	
4292	0	32952	32340	
4293	0	32868	32342	
4294	0	32816	32383	
4295	0	32818	32518	
4296	0	32848	32647	
4297	0	32884	32545	
4298	0	32849	32570	
4299	0	32920	32262	
4300	0	32804	32068	
4301	0	32664	32203	
4302	0	32841	32127	
4303	0	32720	32223	
4304	0	32708	32451	
4305	0	32748	32539	
4306	0	32744	32655	
4307	0	32836	32775	
4308	0	32768	32834	
4309	0	32814	32594	
4310	0	32792	32255	
4311	0	32894	32631	
4312	0	32844	32172	
4313	0	32694	32668	
4314	0	32742	32220	
4315	0	32852	32543	
4316	0	32904	32602	
4317	0	32884	32620	
4318	0	32832	32615	
4319	0	32794	32574	
4320	0	32852	32359	
4321	0	32876	32358	
4322	0	32628	31959	
4323	0	32656	32119	
4324	0	32772	31943	
4325	0	32784	32402	
4326	0	32660	32319	
4327	0	32752	32519	
4328	0	32724	32437	
4329	0	32828	32484	
4330	0	32872	32572	
4331	0	32900	32334	
4332	0	32866	32661	
4333	0	32760	32258	
4334	0	32868	32575	
4335	0	32950	32343	
4336	0	32881	32255	
4337	0	32802	32580	
4338	0	32782	32218	
4339	0	32784	32596	
4340	0	32846	32404	
4341	0	32872	32411	
4342	0	32816	32627	
4343	0	32839	32315	
4344	0	32868	32391	
4345	0	32944	32724	
4346	0	32828	32439	
4347	0	32628	32278	
4348	0	32680	32631	
4349	0	32778	32378	
4350	0	32740	32263	
4351	0	32752	32588	
4352	0	32735	32206	
4353	0	32800	32319	
4354	0	32714	32407	
4355	0	32718	32087	
4356	0	32775	32419	
4357	0	32821	32572	
4358	0	32900	32455	
4359	0	32752	32180	
4360	0	32814	32126	
4361	0	32834	32148	
4362	0	32788	32324	
4363	0	32785	32565	
4364	0	32808	32583	
4365	0	32774	32775	
4366	0	32796	32662	
4367	0	32740	32391	
4368	0	32806	32388	
4369	0	32856	32263	
4370	0	32824	32626	
4371	0	32812	32351	
4372	0	32744	32634	
4373	0	32886	32263	
4374	0	32756	32730	
4375	0	32804	32452	
4376	0	32884	32407	
4377	0	32820	32690	
4378	0	32800	32309	
4379	0	32748	32239	
4380	0	32776	32551	
4381	0	32796	32187	
4382	0	32810	32069	
4383	0	32946	32613	
4384	0	32820	32255	
4385	0	32756	32428	
4386	0	32820	32556	
4387	0	32676	32327	
4388	0	32960	32702	
4389	0	32820	32530	
4390	0	32804	32367	
4391	0	32723	32582	
4392	0	32716	32226	
4393	0	32864	32614	
4394	0	32706	32292	
4395	0	32766	32758	
4396	0	32822	32606	
4397	0	32720	32325	
4398	0	32810	32199	
4399	0	32896	32350	
4400	0	32756	32543	
4401	0	32678	32367	
4402	0	32828	32047	
4403	0	32808	31937	
4404	0	32944	32162	
4405	0	32876	32503	
4406	0	32882	32673	
4407	0	32992	32702	
4408	0	32770	32483	
4409	0	32702	32458	
4410	0	32775	32398	
4411	0	32848	32424	
4412	0	32740	32636	
4413	0	32826	32725	
4414	0	32757	32791	
4415	0	32808	32808	
4416	0	32866	32415	
4417	0	32756	32218	
4418	0	32775	31845	
4419	0	32752	31991	
4420	0	32738	31655	
4421	0	32708	32131	
4422	0	32776	32170	
4423	0	32876	32765	
4424	0	32736	32591	
4425	0	32670	32583	
4426	0	32700	32663	
4427	0	32808	32379	
4428	0	32783	32694	
4429	0	32806	32412	
4430	0	32799	32596	
4431	0	32866	32387	
4432	0	32812	32282	
4433	0	32804	32068	
4434	0	32832	32063	
4435	0	32822	32347	
4436	0	32828	32655	
4437	0	32782	32766	
4438	0	32866	32742	
4439	0	32844	32487	
4440	0	32812	32391	
4441	0	32836	32418	
4442	0	32840	32663	
4443	0	32761	32644	
4444	0	32744	32622	
4445	0	32876	32051	
4446	0	32855	32710	
4447	0	32756	32308	
4448	0	32868	32406	
4449	0	32864	32447	
4450	0	32764	32143	
4451	0	32780	32657	
4452	0	32782	32154	
4453	0	32746	32135	
4454	0	32774	32484	
4455	0	32774	32094	
4456	0	32780	32543	
4457	0	32794	32223	
4458	0	32760	32436	
4459	0	32748	32478	
4460	0	32748	32653	
4461	0	32816	32519	
4462	0	32756	32391	
4463	0	32804	32519	
4464	0	32694	32295	
4465	0	32732	32263	
4466	0	32756	32628	
4467	0	32772	32820	
4468	0	32766	32519	
4469	0	32860	32500	
4470	0	32830	32756	
4471	0	32852	32407	
4472	0	32713	32204	
4473	0	32780	32159	
4474	0	32820	32438	
4475	0	32784	32446	
4476	0	32872	32143	
4477	0	32830	31951	
4478	0	32928	32207	
4479	0	32889	32518	
4480	0	32676	32398	
4481	0	32786	32380	
4482	0	32896	32657	
4483	0	32872	32359	
4484	0	32894	32606	
4485	0	32756	32561	
4486	0	32816	32263	
4487	0	32808	32519	
4488	0	32817	32165	
4489	0	32732	32022	
4490	0	32648	32359	
4491	0	32772	32404	
4492	0	32896	32604	
4493	0	32740	32459	
4494	0	32858	32468	
4495	0	32652	32325	
4496	0	32878	32548	
4497	0	32750	32420	
4498	0	32864	32135	
4499	0	32936	32519	
4500	0	32806	32716	
4501	0	32798	32239	
4502	0	32790	32311	
4503	0	32780	32659	
4504	0	32884	32636	
4505	0	32840	32423	
4506	0	32856	32239	
4507	0	32830	32788	
4508	0	32726	32535	
4509	0	32676	32263	
4510	0	32730	32285	
4511	0	32768	32766	
4512	0	32864	32483	
4513	0	32836	32371	
4514	0	32820	32582	
4515	0	32813	32420	
4516	0	32806	32315	
4517	0	32864	32615	
4518	0	32774	32220	
4519	0	32878	32140	
4520	0	32804	32380	
4521	0	32864	32113	
4522	0	32788	32115	
4523	0	32788	32519	
4524	0	32810	32519	
4525	0	32756	32257	
4526	0	32688	32079	
4527	0	32705	32303	
4528	0	32724	32503	
4529	0	32822	32362	
4530	0	32812	32452	
4531	0	32764	32391	
4532	0	32814	32679	
4533	0	32770	32840	
4534	0	32752	32391	
4535	0	32778	32263	
4536	0	32924	32593	
4537	0	32710	32407	
4538	0	32794	32261	
4539	0	32780	32579	
4540	0	32794	32647	
4541	0	32820	32359	
4542	0	32844	32207	
4543	0	32906	32343	
4544	0	32816	32711	
4545	0	32840	32476	
4546	0	32844	32134	
4547	0	32772	32452	
4548	0	32830	32662	
4549	0	32748	32263	
4550	0	32672	32591	
4551	0	32780	32542	
4552	0	32798	32282	
4553	0	32680	32759	
4554	0	32801	32700	
4555	0	32888	32327	
4556	0	32772	32173	
4557	0	32774	32260	
4558	0	32864	32315	
4559	0	32820	31940	
4560	0	32856	31912	
4561	0	32940	32234	
4562	0	32884	32114	
4563	0	32868	32086	
4564	0	32796	32559	
4565	0	32784	32846	
4566	0	32712	32546	
4567	0	32558	32375	
4568	0	32560	32692	
4569	0	32664	32743	
4570	0	32682	32301	
4571	0	32644	32487	
4572	0	32644	32597	
4573	0	32660	32263	
4574	0	32686	32375	
4575	0	32612	32706	
4576	0	32784	32297	
4577	0	32774	32229	
4578	0	32722	32423	
4579	0	32620	32343	
4580	0	32752	32519	
4581	0	32801	32319	
4582	0	32784	32192	
4583	0	32872	32693	
4584	0	33032	32385	
4585	0	32832	32484	
4586	0	32976	32789	
4587	0	32866	32359	
4588	0	32888	32502	
4589	0	32852	32584	
4590	0	32932	32296	
4591	0	32913	32551	
4592	0	32742	32135	
4593	0	32918	32263	
4594	0	33110	32622	
4595	0	32951	32409	
4596	0	32792	32300	
4597	0	32746	32354	
4598	0	32820	32431	
4599	0	32976	32116	
4600	0	32906	32006	
4601	0	32908	32564	
4602	0	32894	32815	
4603	0	32954	32535	
4604	0	32876	32252	
4605	0	32860	32284	
4606	0	32996	32753	
4607	0	33086	32506	
4608	0	32897	32215	
4609	0	32980	32338	
4610	0	33000	32607	
4611	0	32775	32331	
4612	0	32740	32482	
4613	0	32754	32807	
4614	0	32544	32672	
4615	0	32598	32337	
4616	0	32670	32555	
4617	0	32678	32446	
4618	0	32572	32110	
4619	0	32574	32470	
4620	0	32516	32375	
4621	0	32664	31719	
4622	0	32656	31959	
4623	0	32678	32443	
4624	0	32784	32447	
4625	0	32900	32293	
4626	0	32932	32607	
4627	0	32832	32746	
4628	0	32753	32409	
4629	0	32886	32388	
4630	0	32905	32658	
4631	0	32920	32519	
4632	0	32712	32247	
4633	0	32924	32495	
4634	0	32848	32719	
4635	0	32924	32287	
4636	0	32880	32676	
4637	0	32720	32647	
4638	0	32700	32319	
4639	0	32687	32552	
4640	0	32769	32750	
4641	0	32842	32383	
4642	0	32782	32431	
4643	0	32863	32628	
4644	0	32928	32327	
4645	0	32805	32068	
4646	0	32834	32042	
4647	0	32884	32468	
4648	0	32684	32475	
4649	0	32784	32135	
4650	0	32785	32023	
4651	0	32900	32293	
4652	0	32884	32538	
4653	0	32776	32542	
4654	0	32740	32351	
4655	0	32772	32358	
4656	0	32758	32591	
4657	0	32830	32386	
4658	0	32854	32175	
4659	0	32782	32538	
4660	0	32758	32695	
4661	0	32812	32420	
4662	0	32752	32241	
4663	0	32738	32199	
4664	0	32750	32443	
4665	0	32829	32646	
4666	0	32820	32399	
4667	0	32738	32324	
4668	0	32764	32642	
4669	0	32796	32467	
4670	0	32716	32372	
4671	0	32772	32755	
4672	0	32612	32559	
4673	0	32714	32335	
4674	0	32556	32283	
4675	0	32462	32540	
4676	0	32578	32254	
4677	0	32422	31775	
4678	0	32369	31943	
4679	0	32400	32351	
4680	0	32448	32220	
4681	0	32487	32501	
4682	0	32508	32703	
4683	0	32558	32718	
4684	0	32610	32566	
4685	0	32600	32423	
4686	0	32420	32258	
4687	0	32332	32186	
4688	0	32488	32175	
4689	0	32592	32263	
4690	0	32694	32572	
4691	0	32672	32789	
4692	0	32630	32591	
4693	0	32828	32420	
4694	0	32892	32434	
4695	0	33012	32575	
4696	0	33104	32742	
4697	0	33391	32633	
4698	0	33596	32131	
4699	0	33964	32209	
4700	0	34244	31829	
4701	0	34360	32287	
4702	0	34080	32572	
4703	0	33892	32455	
4704	0	33678	32187	
4705	0	33638	32282	
4706	0	33568	32606	
4707	0	33692	32316	
4708	0	33476	32305	
4709	0	33452	32487	
4710	0	33456	32287	
4711	0	33246	32681	
4712	0	33040	32245	
4713	0	32732	32827	
4714	0	32760	32378	
4715	0	33244	32359	
4716	0	33570	32586	
4717	0	33606	32326	
4718	0	33402	32747	
4719	0	33310	32258	
4720	0	33272	32510	
4721	0	33084	32347	
4722	0	32678	32303	
4723	0	32326	32636	
4724	0	32036	32394	
4725	0	31751	32492	
4726	0	31440	32030	
4727	0	31078	32499	
4728	0	31040	32309	
4729	0	31064	32247	
4730	0	30901	32231	
4731	0	30888	32519	
4732	0	31128	32663	
4733	0	31362	32446	
4734	0	31588	32263	
4735	0	31860	32287	
4736	0	31918	32509	
4737	0	32162	32642	
4738	0	32292	32293	
4739	0	32490	32124	
4740	0	32770	32439	
4741	0	32928	32311	
4742	0	33132	32647	
4743	0	33292	32301	
4744	0	33296	32658	
4745	0	33328	32490	
4746	0	33404	32323	
4747	0	33274	32170	
4748	0	33424	32474	
4749	0	33330	32623	
4750	0	33236	32337	
4751	0	33196	32110	
4752	0	33100	32102	
4753	0	33124	32670	
4754	0	33092	32284	
4755	0	33114	32337	
4756	0	33052	32644	
4757	0	32990	32318	
4758	0	33140	32295	
4759	0	32897	32603	
4760	0	32906	32103	
4761	0	32872	32383	
4762	0	32834	32185	
4763	0	33006	32239	
4764	0	32866	32701	
4765	0	32830	32326	
4766	0	32830	32619	
4767	0	32834	32692	
4768	0	32836	32310	
4769	0	32843	32643	
4770	0	32797	32619	
4771	0	32884	32197	
4772	0	32816	32444	
4773	0	32792	32175	
4774	0	32796	32057	
4775	0	32758	32420	
4776	0	32732	32423	
4777	0	32756	32298	
4778	0	32756	32673	
4779	0	32820	32491	
4780	0	32792	32343	
4781	0	32748	32372	
4782	0	32807	32491	
4783	0	32876	32458	
4784	0	32879	32499	
4785	0	32857	32499	
4786	0	32838	32655	
4787	0	32858	32483	
4788	0	32816	32447	
4789	0	32924	32604	
4790	0	32820	32430	
4791	0	32804	32475	
4792	0	32884	32686	
4793	0	32848	32218	
4794	0	32822	32759	
4795	0	32728	32305	
4796	0	32860	32494	
4797	0	32735	32673	
4798	0	32776	32694	
4799	0	32718	32501	
4800	0	32710	32303	
4801	0	32782	32167	
4802	0	32848	32261	
4803	0	32804	32455	
4804	0	32720	32506	
4805	0	32756	32578	
4806	0	32772	32503	
4807	0	32820	32399	
4808	0	32832	32354	
4809	0	32876	32038	
4810	0	32808	31971	
4811	0	32848	32091	
4812	0	32840	32162	
4813	0	32762	32398	
4814	0	32910	32519	
4815	0	32927	32516	
4816	0	32772	32509	
4817	0	32808	32453	
4818	0	32796	32455	
4819	0	32818	32443	
4820	0	32804	32603	
4821	0	32774	32647	
4822	0	32845	32628	
4823	0	32814	32532	
4824	0	32836	32444	
4825	0	32700	32263	
4826	0	32814	32135	
4827	0	32791	32230	
4828	0	32804	32391	
4829	0	32706	32659	
4830	0	32874	32449	
4831	0	32780	32402	
4832	0	32820	32315	
4833	0	32694	32518	
4834	0	32818	32681	
4835	0	32876	32575	
4836	0	32788	32310	
4837	0	32902	32455	
4838	0	32852	32487	
4839	0	32656	32391	
4840	0	32716	32306	
4841	0	32830	32295	
4842	0	32796	32548	
4843	0	32720	32602	
4844	0	32774	32444	
4845	0	32900	32319	
4846	0	32916	32366	
4847	0	32892	32615	
4848	0	32804	32377	
4849	0	32764	32218	
4850	0	32796	32261	
4851	0	32788	32474	
4852	0	32856	32676	
4853	0	32790	32391	
4854	0	32790	32032	
4855	0	32690	32042	
4856	0	32744	32366	
4857	0	32780	32647	
4858	0	32756	32359	
4859	0	32805	32116	
4860	0	32794	32263	
4861	0	32816	32500	
4862	0	32868	32719	
4863	0	32841	32380	
4864	0	32824	32327	
4865	0	32818	32519	
4866	0	32840	32622	
4867	0	32730	32391	
4868	0	32780	32412	
4869	0	32780	32711	
4870	0	32826	32495	
4871	0	32836	32295	
4872	0	32892	32307	
4873	0	32772	32502	
4874	0	32696	32631	
4875	0	32800	32647	
4876	0	32748	32348	
4877	0	32792	32183	
4878	0	32794	32263	
4879	0	32748	32202	
4880	0	32752	32319	
4881	0	32792	32479	
4882	0	32788	32672	
4883	0	32814	32427	
4884	0	32802	32261	
4885	0	32864	32254	
4886	0	32788	32519	
4887	0	32852	32454	
4888	0	32892	32226	
4889	0	32775	32246	
4890	0	32790	32535	
4891	0	32900	32615	
4892	0	32824	32739	
4893	0	33072	32583	
4894	0	32889	32541	
4895	0	32823	32391	
4896	0	32788	32679	
4897	0	32724	32775	
4898	0	32844	32556	
4899	0	32696	32465	
4900	0	32860	32182	
4901	0	32908	32307	
4902	0	32840	32375	
4903	0	32760	32055	
4904	0	32764	32052	
4905	0	32716	32512	
4906	0	32748	32076	
4907	0	32751	31910	
4908	0	32784	32238	
4909	0	32692	32443	
4910	0	32812	32247	
4911	0	32775	32224	
4912	0	32770	32775	
4913	0	32736	32462	
4914	0	32764	32473	
4915	0	32834	32670	
4916	0	32852	32566	
4917	0	32840	32326	
4918	0	32849	32595	
4919	0	32677	32631	
4920	0	32712	32487	
4921	0	32836	32263	
4922	0	32944	32405	
4923	0	32948	32639	
4924	0	32839	32548	
4925	0	32806	32367	
4926	0	32857	32388	
4927	0	32790	32604	
4928	0	32792	32593	
4929	0	32801	32535	
4930	0	32820	32241	
4931	0	32864	32090	
4932	0	32877	32175	
4933	0	32648	32127	
4934	0	32724	32238	
4935	0	32908	32575	
4936	0	32806	32710	
4937	0	32732	32682	
4938	0	32828	32401	
4939	0	32846	32293	
4940	0	32720	32323	
4941	0	32775	32586	
4942	0	32742	32635	
4943	0	32885	32719	
4944	0	32910	32695	
4945	0	32740	32452	
4946	0	32736	32430	
4947	0	32796	32171	
4948	0	32828	32407	
4949	0	32826	32415	
4950	0	32870	32516	
4951	0	32812	32291	
4952	0	32816	32179	
4953	0	32706	32647	
4954	0	32808	32399	
4955	0	32853	32417	
4956	0	32892	32762	
4957	0	32788	32442	
4958	0	32842	32673	
4959	0	32792	32661	
4960	0	32700	32302	
4961	0	32748	32615	
4962	0	32745	32383	
4963	0	32804	32135	
4964	0	32740	32287	
4965	0	32864	32206	
4966	0	32682	31701	
4967	0	32716	32187	
4968	0	32804	32660	
4969	0	32804	32519	
4970	0	32758	32259	
4971	0	32830	32367	
4972	0	32746	32570	
4973	0	32734	32767	
4974	0	32832	32495	
4975	0	32868	32359	
4976	0	32808	32636	
4977	0	32740	32706	
4978	0	32836	32450	
4979	0	32838	32298	
4980	0	32780	32474	
4981	0	32808	32694	
4982	0	32752	32594	
4983	0	32789	32295	
4984	0	32749	32281	
4985	0	32792	32518	
4986	0	32822	32647	
4987	0	32860	32278	
4988	0	32708	32063	
4989	0	32838	32316	
4990	0	32860	32439	
4991	0	32764	32535	
4992	0	32834	32486	
4993	0	32852	32340	
4994	0	32876	32230	
4995	0	32842	32623	
4996	0	32836	32864	
4997	0	32768	32532	
4998	0	32705	32238	
4999	0	32900	32452	
5000	0	32785	32631	
5001	0	32774	32262	
5002	0	32862	32031	
5003	0	32790	32311	
5004	0	32763	32398	
5005	0	32774	32357	
5006	0	32728	32335	
5007	0	32664	32211	
5008	0	32728	32143	
5009	0	32800	32335	
5010	0	32806	32555	
5011	0	32822	32656	
5012	0	32852	32671	
5013	0	32856	32711	
5014	0	32864	32479	
5015	0	32798	32316	
5016	0	32840	32175	
5017	0	32814	32130	
5018	0	32852	32470	
5019	0	32832	32567	
5020	0	32822	32707	
5021	0	32796	32647	
5022	0	32760	32510	
5023	0	32763	32263	
5024	0	32786	32124	
5025	0	32712	32159	
5026	0	32788	32227	
5027	0	32766	32263	
5028	0	32752	32519	
5029	0	32900	32575	
5030	0	32820	32347	
5031	0	32864	32332	
5032	0	32889	32263	
5033	0	32808	32130	
5034	0	32734	32263	
5035	0	32772	32204	
5036	0	32751	32355	
5037	0	32820	32487	
5038	0	32700	32195	
5039	0	32748	32491	
5040	0	32872	32564	
5041	0	32785	32348	
5042	0	32782	32737	
5043	0	32766	32315	
5044	0	32826	32588	
5045	0	32826	32430	
5046	0	32812	32306	
5047	0	32807	32465	
5048	0	32692	32172	
5049	0	32764	32300	
5050	0	32794	32196	
5051	0	32785	32151	
5052	0	32852	32478	
5053	0	32782	32206	
5054	0	32804	32755	
5055	0	32868	32334	
5056	0	32810	32468	
5057	0	32830	32647	
5058	0	32850	32294	
5059	0	32748	32791	
5060	0	32804	32398	
5061	0	32969	32539	
5062	0	32818	32615	
5063	0	32806	32215	
5064	0	32746	32412	
5065	0	32812	32556	
5066	0	32836	32090	
5067	0	32836	32444	
5068	0	32784	31919	
5069	0	32792	32463	
5070	0	32716	32228	
5071	0	32712	32670	
5072	0	32780	32356	
5073	0	32784	32471	
5074	0	32778	32583	
5075	0	32860	32387	
5076	0	32748	32583	
5077	0	32765	32167	
5078	0	32738	32674	
5079	0	32756	32359	
5080	0	32814	32351	
5081	0	32795	32548	
5082	0	32828	32102	
5083	0	32892	32135	
5084	0	32936	32588	
5085	0	32878	32447	
5086	0	32788	32361	
5087	0	32896	32402	
5088	0	32924	32881	
5089	0	32864	32527	
5090	0	32797	32367	
5091	0	32840	32615	
5092	0	32748	32647	
5093	0	32728	32348	
5094	0	32864	32040	
5095	0	32788	32263	
5096	0	32700	32366	
5097	0	32642	32103	
5098	0	32764	32654	
5099	0	32685	32485	
5100	0	32796	32263	
5101	0	32831	32567	
5102	0	32884	32772	
5103	0	32825	32615	
5104	0	32804	32335	
5105	0	32832	32509	
5106	0	32808	32674	
5107	0	32864	32287	
5108	0	32840	32306	
5109	0	32860	32674	
5110	0	32814	32565	
5111	0	32800	32245	
5112	0	32816	32719	
5113	0	32756	32200	
5114	0	32798	32358	
5115	0	32798	32644	
5116	0	32872	32260	
5117	0	32856	32007	
5118	0	32774	32156	
5119	0	32756	32647	
5120	0	32824	32422	
5121	0	32724	32359	
5122	0	32798	32310	
5123	0	32816	32550	
5124	0	32774	32503	
5125	0	32716	32102	
5126	0	32752	32383	
5127	0	32752	32663	
5128	0	32782	32445	
5129	0	32796	32243	
5130	0	32756	32250	
5131	0	32780	32655	
5132	0	32868	32488	
5133	0	32842	32303	
5134	0	32836	32162	
5135	0	32839	32358	
5136	0	32788	32532	
5137	0	32800	32415	
5138	0	32840	32321	
5139	0	32836	32599	
5140	0	32810	32281	
5141	0	32904	32583	
5142	0	32794	32571	
5143	0	32844	32263	
5144	0	32852	32687	
5145	0	32952	32359	
5146	0	32896	32295	
5147	0	32792	32647	
5148	0	32782	32549	
5149	0	32760	32166	
5150	0	32720	32710	
5151	0	32764	32468	
5152	0	32840	32327	
5153	0	32856	32350	
5154	0	32708	32574	
5155	0	32716	32647	
5156	0	32708	32318	
5157	0	32677	32135	
5158	0	32790	32502	
5159	0	32892	32633	
5160	0	32830	32343	
5161	0	32792	32127	
5162	0	32892	32300	
5163	0	32872	32591	
5164	0	32754	32455	
5165	0	32780	32263	
5166	0	32775	32454	
5167	0	32826	32724	
5168	0	32809	32287	
5169	0	32862	32356	
5170	0	32830	32639	
5171	0	32798	32530	
5172	0	32868	32167	
5173	0	32808	32486	
5174	0	32808	32667	
5175	0	32736	32431	
5176	0	32849	32228	
5177	0	32796	32297	
5178	0	32772	32539	
5179	0	32786	32536	
5180	0	32776	32372	
5181	0	32820	32416	
5182	0	32822	32700	
5183	0	32752	32727	
5184	0	32780	32371	
5185	0	32826	32071	
5186	0	32708	32085	
5187	0	32712	32391	
5188	0	32792	32238	
5189	0	32772	31742	
5190	0	32836	31826	
5191	0	32824	32235	
5192	0	32784	32647	
5193	0	32762	32503	
5194	0	32774	32263	
5195	0	32836	32471	
5196	0	32794	32751	
5197	0	32742	32769	
5198	0	32782	32736	
5199	0	32784	32635	
5200	0	32808	32495	
5201	0	32894	32483	
5202	0	32820	32836	
5203	0	32897	32484	
5204	0	32816	32218	
5205	0	32791	32327	
5206	0	32852	32503	
5207	0	32846	32414	
5208	0	32788	32068	
5209	0	32728	32463	
5210	0	32726	32751	
5211	0	32724	32235	
5212	0	32764	32295	
5213	0	32772	32692	
5214	0	32780	32351	
5215	0	32812	32156	
5216	0	32840	32404	
5217	0	32824	32346	
5218	0	32844	32188	
5219	0	32846	32238	
5220	0	32818	32380	
5221	0	32808	32716	
5222	0	32807	32492	
5223	0	32940	32283	
5224	0	32912	32298	
5225	0	32837	32414	
5226	0	32772	32623	
5227	0	32808	32671	
5228	0	32876	32510	
5229	0	32812	32243	
5230	0	32822	32199	
5231	0	32832	32447	
5232	0	32822	32688	
5233	0	32824	32503	
5234	0	32857	32412	
5235	0	32871	32263	
5236	0	32794	32246	
5237	0	32736	32391	
5238	0	32784	32647	
5239	0	32772	32686	
5240	0	32736	32519	
5241	0	32870	32341	
5242	0	32804	32148	
5243	0	32700	32119	
5244	0	32744	32195	
5245	0	32854	32390	
5246	0	32772	32435	
5247	0	32728	32442	
5248	0	32804	32504	
5249	0	32706	32551	
5250	0	32889	32615	
5251	0	32920	32519	
5252	0	32805	32391	
5253	0	32810	32367	
5254	0	32842	32359	
5255	0	32800	32324	
5256	0	32802	32422	
5257	0	32820	32434	
5258	0	32792	32539	
5259	0	32736	32646	
5260	0	32820	32726	
5261	0	32676	32607	
5262	0	32656	32678	
5263	0	32812	32470	
5264	0	32814	32182	
5265	0	32784	32327	
5266	0	32820	32391	
5267	0	32860	32007	
5268	0	32838	31822	
5269	0	32832	31955	
5270	0	32816	32448	
5271	0	32924	32299	
5272	0	32868	31939	
5273	0	32788	32530	
5274	0	32849	32818	
5275	0	32764	32481	
5276	0	32788	32603	
5277	0	32756	32858	
5278	0	32806	32647	
5279	0	32791	32292	
5280	0	32756	32219	
5281	0	32746	32735	
5282	0	32705	32460	
5283	0	32724	32120	
5284	0	32708	32358	
5285	0	32807	32674	
5286	0	32752	32423	
5287	0	32772	32135	
5288	0	32900	32423	
5289	0	32960	32570	
5290	0	32904	32426	
5291	0	32840	32204	
5292	0	32708	32204	
5293	0	32585	32355	
5294	0	32719	32547	
5295	0	32824	32335	
5296	0	32826	32300	
5297	0	32814	32535	
5298	0	32824	32255	
5299	0	32726	32516	
5300	0	32824	32662	
5301	0	32812	32391	
5302	0	32798	32307	
5303	0	32892	32294	
5304	0	32984	32471	
5305	0	32932	32670	
5306	0	32890	32666	
5307	0	32923	32735	
5308	0	32904	32487	
5309	0	32852	32294	
5310	0	32894	32174	
5311	0	32942	32135	
5312	0	32828	32181	
5313	0	32712	32131	
5314	0	32662	32246	
5315	0	32660	32511	
5316	0	32736	32573	
5317	0	32740	32399	
5318	0	32775	32397	
5319	0	32712	32295	
5320	0	32704	32180	
5321	0	32774	32327	
5322	0	32796	32661	
5323	0	32888	32735	
5324	0	32836	32478	
5325	0	32796	32455	
5326	0	32765	32250	
5327	0	32752	32310	
5328	0	32844	32386	
5329	0	32716	32415	
5330	0	32824	32467	
5331	0	32784	32484	
5332	0	32734	32551	
5333	0	32754	32309	
5334	0	32776	32141	
5335	0	32756	32084	
5336	0	32780	32228	
5337	0	32823	32374	
5338	0	32896	32631	
5339	0	32874	32740	
5340	0	32836	32623	
5341	0	32814	32494	
5342	0	32792	32431	
5343	0	32812	32612	
5344	0	32804	32771	
5345	0	32852	32711	
5346	0	32757	32305	
5347	0	32804	32124	
5348	0	32796	31971	
5349	0	32808	31875	
5350	0	32770	31886	
5351	0	32726	31964	
5352	0	32892	31914	
5353	0	32740	32045	
5354	0	32772	32500	
5355	0	32854	32636	
5356	0	32796	32708	
5357	0	32788	32919	
5358	0	32796	32949	
5359	0	32792	32716	
5360	0	32794	32687	
5361	0	32784	32698	
5362	0	32808	32495	
5363	0	32828	32359	
5364	0	32762	32213	
5365	0	32745	32314	
5366	0	32728	32572	
5367	0	32716	32475	
5368	0	32720	32322	
5369	0	32768	32263	
5370	0	32864	32183	
5371	0	32936	32430	
5372	0	32900	32676	
5373	0	32887	32304	
5374	0	32928	32383	
5375	0	32886	32719	
5376	0	32893	32503	
5377	0	32782	32229	
5378	0	32805	32490	
5379	0	32768	32807	
5380	0	32776	32683	
5381	0	32730	32474	
5382	0	32786	32351	
5383	0	32746	32294	
5384	0	32626	32297	
5385	0	32664	32431	
5386	0	32775	32307	
5387	0	32782	32084	
5388	0	32798	32028	
5389	0	32804	32263	
5390	0	32788	32588	
5391	0	32836	32355	
5392	0	32838	32170	
5393	0	32820	32263	
5394	0	32852	32526	
5395	0	32740	32724	
5396	0	32804	32599	
5397	0	32856	32318	
5398	0	32948	32341	
5399	0	32828	32468	
5400	0	32826	32599	
5401	0	32754	32733	
5402	0	32785	32535	
5403	0	32702	32707	
5404	0	32805	32404	
5405	0	32798	32263	
5406	0	32784	32391	
5407	0	32724	32567	
5408	0	32680	32551	
5409	0	32676	32199	
5410	0	32820	32132	
5411	0	32826	32095	
5412	0	32836	32428	
5413	0	32802	32698	
5414	0	32764	32574	
5415	0	32800	32341	
5416	0	32804	32220	
5417	0	32870	32235	
5418	0	32812	32203	
5419	0	33012	32279	
5420	0	32832	32443	
5421	0	32730	32404	
5422	0	32778	32484	
5423	0	32810	32454	
5424	0	32720	32469	
5425	0	32748	32455	
5426	0	32799	32353	
5427	0	32722	32263	
5428	0	32730	32401	
5429	0	32708	32615	
5430	0	32808	32663	
5431	0	32798	32580	
5432	0	32769	32425	
5433	0	32748	32226	
5434	0	32878	32220	
5435	0	32854	32366	
5436	0	32700	32519	
5437	0	32860	32620	
5438	0	32824	32642	
5439	0	32862	32679	
5440	0	32842	32402	
5441	0	32824	32287	
5442	0	32922	32119	
5443	0	32900	32050	
5444	0	32796	32405	
5445	0	32776	32772	
5446	0	32786	32455	
5447	0	32776	32303	
5448	0	32814	32410	
5449	0	32896	32602	
5450	0	32912	32671	
5451	0	32780	32718	
5452	0	32732	32292	
5453	0	32684	32222	
5454	0	32752	32342	
5455	0	32756	32566	
5456	0	32714	32671	
5457	0	32712	32591	
5458	0	32746	32372	
5459	0	32750	32495	
5460	0	32799	32183	
5461	0	32852	32315	
5462	0	32774	32287	
5463	0	32814	31932	
5464	0	32860	32479	
5465	0	32805	32118	
5466	0	32840	32564	
5467	0	32844	32482	
5468	0	32966	32281	
5469	0	32892	32476	
5470	0	32878	32194	
5471	0	32878	32218	
5472	0	32829	32222	
5473	0	32797	32567	
5474	0	32745	32850	
5475	0	32796	32836	
5476	0	32834	32515	
5477	0	32776	32398	
5478	0	32694	32367	
5479	0	32708	32447	
5480	0	32704	32455	
5481	0	32736	32623	
5482	0	32818	32639	
5483	0	32774	32262	
5484	0	32697	32163	
5485	0	32794	32518	
5486	0	32826	32508	
5487	0	32902	32231	
5488	0	32916	32582	
5489	0	32855	32595	
5490	0	32826	32207	
5491	0	32831	32335	
5492	0	32775	32639	
5493	0	32852	32444	
5494	0	32900	32434	
5495	0	32864	32594	
5496	0	32785	32234	
5497	0	32820	32263	
5498	0	32834	32327	
5499	0	32818	32506	
5500	0	32766	32319	
5501	0	32780	32135	
5502	0	32756	32135	
5503	0	32700	32526	
5504	0	32756	32772	
5505	0	32832	32860	
5506	0	32796	32571	
5507	0	32728	32716	
5508	0	32780	32263	
5509	0	32792	32731	
5510	0	32852	32412	
5511	0	32762	32657	
5512	0	32760	32239	
5513	0	32788	32151	
5514	0	32712	32036	
5515	0	32624	32221	
5516	0	32834	32190	
5517	0	32864	32127	
5518	0	32836	32503	
5519	0	32848	32596	
5520	0	32834	32263	
5521	0	32798	32327	
5522	0	32860	32639	
5523	0	32788	32835	
5524	0	32774	32607	
5525	0	32822	32348	
5526	0	32796	32442	
5527	0	32912	32607	
5528	0	32780	32727	
5529	0	32794	32775	
5530	0	32774	32499	
5531	0	32750	32335	
5532	0	32688	32158	
5533	0	32688	32047	
5534	0	32772	32083	
5535	0	32844	32358	
5536	0	32798	32420	
5537	0	32760	32628	
5538	0	32768	32263	
5539	0	32904	32103	
5540	0	32790	32095	
5541	0	32832	32334	
5542	0	32807	31954	
5543	0	32748	32511	
5544	0	32868	32431	
5545	0	32756	32183	
5546	0	32748	32450	
5547	0	32960	32694	
5548	0	32800	32732	
5549	0	32740	32487	
5550	0	32704	32482	
5551	0	32886	32446	
5552	0	32878	32439	
5553	0	32778	32366	
5554	0	32904	32255	
5555	0	32776	32180	
5556	0	32712	32459	
5557	0	32836	32636	
5558	0	32868	32743	
5559	0	32892	32708	
5560	0	32848	32495	
5561	0	32964	32517	
5562	0	32852	32601	
5563	0	32754	32693	
5564	0	32862	32383	
5565	0	32880	32263	
5566	0	32812	32148	
5567	0	32780	32195	
5568	0	32860	32258	
5569	0	32840	32361	
5570	0	32860	32567	
5571	0	32836	32528	
5572	0	32823	32388	
5573	0	32808	32290	
5574	0	32814	32156	
5575	0	32760	31990	
5576	0	32668	31903	
5577	0	32668	32079	
5578	0	32736	32310	
5579	0	32796	32548	
5580	0	32684	32699	
5581	0	32730	32391	
5582	0	32772	32490	
5583	0	32784	32548	
5584	0	32848	32711	
5585	0	32840	32466	
5586	0	32820	32207	
5587	0	32832	32245	
5588	0	32769	32438	
5589	0	32766	32567	
5590	0	32728	32279	
5591	0	32798	32721	
5592	0	32796	32262	
5593	0	32802	32545	
5594	0	32820	32291	
5595	0	32832	32350	
5596	0	32712	32527	
5597	0	32744	32339	
5598	0	32686	32599	
5599	0	32836	32327	
5600	0	32876	32448	
5601	0	32816	32343	
5602	0	32856	32355	
5603	0	32863	32678	
5604	0	32808	32195	
5605	0	32960	32510	
5606	0	32863	32577	
5607	0	32814	32615	
5608	0	32774	32516	
5609	0	32828	32418	
5610	0	32892	32348	
5611	0	32801	32412	
5612	0	32808	32589	
5613	0	32806	32473	
5614	0	32736	32263	
5615	0	32737	32295	
5616	0	32736	32519	
5617	0	32733	32286	
5618	0	32768	32174	
5619	0	32784	32230	
5620	0	32820	32462	
5621	0	32788	32702	
5622	0	32785	32636	
5623	0	32766	32252	
5624	0	32812	32178	
5625	0	32882	32563	
5626	0	32856	32463	
5627	0	32853	32179	
5628	0	32834	32544	
5629	0	32792	31999	
5630	0	32864	32351	
5631	0	32860	32438	
5632	0	32700	32197	
5633	0	32716	32460	
5634	0	32812	32724	
5635	0	32892	32487	
5636	0	32852	32298	
5637	0	32798	32551	
5638	0	32832	32572	
5639	0	32768	32647	
5640	0	32836	32498	
5641	0	32776	32370	
5642	0	32644	32222	
5643	0	32940	32340	
5644	0	32788	32631	
5645	0	32766	32679	
5646	0	32804	32519	
5647	0	32732	32263	
5648	0	32720	32236	
5649	0	32804	32402	
5650	0	32820	32534	
5651	0	32804	32624	
5652	0	32832	32465	
5653	0	32838	32418	
5654	0	32760	32332	
5655	0	32693	32188	
5656	0	32852	32598	
5657	0	32801	32146	
5658	0	32736	32321	
5659	0	32808	32543	
5660	0	32712	32164	
5661	0	32806	32567	
5662	0	32784	32311	
5663	0	32882	32476	
5664	0	32736	32411	
5665	0	32719	32212	
5666	0	32768	32508	
5667	0	32760	32131	
5668	0	32750	32322	
5669	0	32792	32455	
5670	0	32847	32678	
5671	0	32895	32647	
5672	0	32926	32377	
5673	0	32964	32346	
5674	0	32870	32679	
5675	0	32884	32835	
5676	0	32830	32665	
5677	0	32804	32478	
5678	0	32774	32388	
5679	0	32830	32431	
5680	0	32642	32591	
5681	0	32630	32510	
5682	0	32644	32479	
5683	0	32684	32183	
5684	0	32612	32023	
5685	0	32648	32078	
5686	0	32764	32427	
5687	0	32764	32606	
5688	0	32628	32488	
5689	0	32676	32511	
5690	0	32740	32692	
5691	0	32710	32972	
5692	0	32840	33333	
5693	0	32788	33730	
5694	0	32857	33836	
5695	0	32814	32327	
5696	0	32708	28933	
5697	0	32852	16968	
5698	0	32912	17446	
5699	0	32828	31092	
5700	0	32896	35831	
5701	0	32898	27208	
5702	0	32864	28134	
5703	0	32864	37576	
5704	0	32772	36387	
5705	0	32880	15221	
5706	0	32912	24440	
5707	0	33100	20800	
5708	0	33494	58516	
5709	0	34020	65535	
5710	0	31476	32112	
5711	0	31672	28374	
5712	0	31944	29869	
5713	0	32196	33270	
5714	0	32252	36832	
5715	0	32557	38420	
5716	0	32674	37924	
5717	0	32712	36942	
5718	0	32802	35173	
5719	0	32864	33287	
5720	0	32852	31800	
5721	0	32964	30334	
5722	0	32906	29676	
5723	0	33134	30365	
5724	0	32960	31949	
5725	0	32860	33749	
5726	0	32836	34530	
