# OpenSignals Text File Format. Version 1
# {"00:07:80:4B:3C:23": {"position": 0, "device": "biosignalsplux", "device name": "00:07:80:4B:3C:23", "device connection": "BTH00:07:80:4B:3C:23", "sampling rate": 1000, "resolution": [16, 16], "firmware version": 776, "comments": "", "keywords": "", "mode": 0, "sync interval": 2, "date": "2024-9-26", "time": "11:22:36.442", "channels": [5, 7], "sensor": ["EMG", "EMG"], "label": ["CH5", "CH7"], "column": ["nSeq", "DI", "CH5", "CH7"], "special": [{"SpO2": [80, 40, 5, 4, 3, 3]}, {"SpO2": [80, 40, 5, 4, 3, 3]}, {"SpO2": [80, 40, 5, 4, 3, 3]}, {"SpO2": [80, 40, 5, 4, 3, 3]}, {"SpO2": [80, 40, 5, 4, 3, 3]}, {"SpO2": [80, 40, 5, 4, 3, 3]}, {"SpO2": [80, 40, 5, 4, 3, 3]}, {"SpO2": [80, 40, 5, 4, 3, 3]}], "digital IO": [0, 1], "sleeve color": ["gray", "brown"]}}
# EndOfHeader
0	0	32862	32894	
1	0	32762	32838	
2	0	32852	32876	
3	0	32762	32888	
4	0	32864	32895	
5	0	32810	32656	
6	0	32840	32615	
7	0	32764	32655	
8	0	32804	32532	
9	0	32768	32303	
10	0	32758	32391	
11	0	32838	32459	
12	0	32752	32227	
13	0	32816	32222	
14	0	32822	32363	
15	0	32904	32622	
16	0	32837	32942	
17	0	32744	32459	
18	0	32820	32512	
19	0	32806	32314	
20	0	32848	32007	
21	0	32836	32233	
22	0	32823	31905	
23	0	32748	32291	
24	0	32774	32438	
25	0	32816	32454	
26	0	32756	32295	
27	0	32780	32263	
28	0	32774	32391	
29	0	32772	32421	
30	0	32736	32471	
31	0	32775	32646	
32	0	32814	32708	
33	0	32806	32511	
34	0	32817	32423	
35	0	32868	32775	
36	0	32922	32647	
37	0	32872	32578	
38	0	32788	32520	
39	0	32764	32719	
40	0	32766	32753	
41	0	32794	32773	
42	0	32848	32647	
43	0	32880	32518	
44	0	32788	32214	
45	0	32786	32261	
46	0	32712	32067	
47	0	32868	32295	
48	0	32840	32212	
49	0	32754	32047	
50	0	32804	31999	
51	0	32785	32039	
52	0	32781	31980	
53	0	32708	32111	
54	0	32788	32411	
55	0	32780	32519	
56	0	32738	32546	
57	0	32866	32471	
58	0	32796	32391	
59	0	32721	32767	
60	0	32876	32775	
61	0	32852	32647	
62	0	32868	32621	
63	0	32888	32795	
64	0	32840	32647	
65	0	32766	32695	
66	0	32756	32455	
67	0	32734	32323	
68	0	32768	32188	
69	0	32792	32031	
70	0	32802	31875	
71	0	32854	32287	
72	0	32852	32607	
73	0	32764	32639	
74	0	32728	32454	
75	0	32806	32511	
76	0	32772	32759	
77	0	32844	32731	
78	0	32730	32470	
79	0	32772	32519	
80	0	32868	32550	
81	0	32787	32606	
82	0	32752	32697	
83	0	32796	32295	
84	0	32812	32170	
85	0	32862	32321	
86	0	32754	32575	
87	0	32866	32718	
88	0	32790	32570	
89	0	32780	32003	
90	0	32724	32404	
91	0	32788	32419	
92	0	32848	32263	
93	0	32800	32250	
94	0	32848	32391	
95	0	32790	32580	
96	0	32756	32903	
97	0	32804	32847	
98	0	32788	32708	
99	0	32748	32603	
100	0	32778	32494	
101	0	32792	32519	
102	0	32772	32178	
103	0	32815	32023	
104	0	32806	32183	
105	0	32792	32449	
106	0	32864	32158	
107	0	32916	32007	
108	0	32782	32210	
109	0	32712	32399	
110	0	32772	32439	
111	0	32766	32127	
112	0	32888	32047	
113	0	32820	32330	
114	0	32783	32806	
115	0	32736	32832	
116	0	32769	32875	
117	0	32828	32751	
118	0	32840	32711	
119	0	32732	32368	
120	0	32824	32589	
121	0	32772	32401	
122	0	32762	32119	
123	0	32804	32135	
124	0	32856	32356	
125	0	32780	32452	
126	0	32868	32540	
127	0	32838	32538	
128	0	32774	32579	
129	0	32772	32487	
130	0	32848	32263	
131	0	32792	32197	
132	0	32790	31979	
133	0	32786	32196	
134	0	32766	32775	
135	0	32764	32711	
136	0	32804	32423	
137	0	32840	32351	
138	0	32820	32647	
139	0	32840	32788	
140	0	32832	32698	
141	0	32774	32364	
142	0	32768	32519	
143	0	32812	32535	
144	0	32804	32234	
145	0	32812	31902	
146	0	32741	31476	
147	0	32714	31858	
148	0	32844	32644	
149	0	32912	32412	
150	0	32774	32286	
151	0	32724	32812	
152	0	32814	32775	
153	0	32848	32531	
154	0	32786	32668	
155	0	32796	32597	
156	0	32838	32151	
157	0	32796	32607	
158	0	32778	32788	
159	0	32810	32679	
160	0	32800	32714	
161	0	32775	32889	
162	0	32775	32716	
163	0	32838	32740	
164	0	32800	32742	
165	0	32756	32743	
166	0	32890	32719	
167	0	32884	32706	
168	0	32780	32844	
169	0	32860	32958	
170	0	32760	32591	
171	0	32756	32223	
172	0	32796	31994	
173	0	32788	31934	
174	0	32775	31962	
175	0	32836	32184	
176	0	32704	32263	
177	0	32780	32375	
178	0	32724	32447	
179	0	32872	32484	
180	0	32834	32479	
181	0	32848	32558	
182	0	32722	32647	
183	0	32748	32732	
184	0	32818	32874	
185	0	32800	32603	
186	0	32836	32183	
187	0	32764	32263	
188	0	32804	32692	
189	0	32842	32647	
190	0	32856	32647	
191	0	32784	32663	
192	0	32783	32615	
193	0	32794	32355	
194	0	32724	32002	
195	0	32806	32079	
196	0	32708	32303	
197	0	32760	32579	
198	0	32822	32910	
199	0	32782	32895	
200	0	32774	32775	
201	0	32718	32420	
202	0	32704	32134	
203	0	32756	32114	
204	0	32852	32422	
205	0	32804	32487	
206	0	32762	32455	
207	0	32720	32305	
208	0	32814	31879	
209	0	32728	31751	
210	0	32808	32007	
211	0	32796	32253	
212	0	32876	32462	
213	0	32928	32835	
214	0	32928	32719	
215	0	32910	32579	
216	0	32862	32610	
217	0	32796	32690	
218	0	32640	32596	
219	0	32612	32483	
220	0	32680	32315	
221	0	32696	32279	
222	0	32647	32351	
223	0	32630	32458	
224	0	32719	32665	
225	0	32784	32583	
226	0	32796	32559	
227	0	32792	32687	
228	0	32950	32471	
229	0	32998	32391	
230	0	32996	32410	
231	0	32972	32379	
232	0	32938	32378	
233	0	32940	32182	
234	0	32858	32324	
235	0	32926	32222	
236	0	32888	31648	
237	0	32968	31366	
238	0	32904	32191	
239	0	32926	32900	
240	0	32842	32863	
241	0	32808	32487	
242	0	32844	32415	
243	0	32944	32462	
244	0	32884	32311	
245	0	32902	32503	
246	0	32854	32827	
247	0	32856	32766	
248	0	32849	32446	
249	0	32849	32103	
250	0	32828	32295	
251	0	32726	32583	
252	0	32692	32490	
253	0	32654	32391	
254	0	32728	32103	
255	0	32684	32083	
256	0	32718	32263	
257	0	32774	32455	
258	0	32684	32404	
259	0	32822	32551	
260	0	32767	32326	
261	0	32716	32282	
262	0	32836	32479	
263	0	32812	32660	
264	0	32714	32615	
265	0	32766	32391	
266	0	32830	32111	
267	0	32840	31975	
268	0	32920	32263	
269	0	32864	32743	
270	0	32782	32423	
271	0	32796	32191	
272	0	32734	32310	
273	0	32756	32595	
274	0	32704	32730	
275	0	32686	32823	
276	0	32676	32629	
277	0	32676	32569	
278	0	32742	32453	
279	0	32784	32454	
280	0	32759	32476	
281	0	32930	32543	
282	0	32831	32531	
283	0	32851	32468	
284	0	32820	32567	
285	0	32884	32679	
286	0	32810	32699	
287	0	32790	32876	
288	0	32828	32852	
289	0	32816	32772	
290	0	32872	32711	
291	0	32814	32667	
292	0	32852	32422	
293	0	32834	32106	
294	0	32844	31804	
295	0	32839	31350	
296	0	32702	31515	
297	0	32812	31971	
298	0	32757	31951	
299	0	32846	32292	
300	0	32894	32254	
301	0	32816	32327	
302	0	32836	32631	
303	0	32680	32442	
304	0	32790	32447	
305	0	32816	32263	
306	0	32708	31935	
307	0	32790	32213	
308	0	32788	32176	
309	0	32778	32207	
310	0	32756	32279	
311	0	32788	32360	
312	0	32808	32399	
313	0	32760	32382	
314	0	32768	32339	
315	0	32788	32468	
316	0	32860	32391	
317	0	32856	32564	
318	0	32916	32663	
319	0	32756	32596	
320	0	32772	32509	
321	0	32816	32512	
322	0	32788	32686	
323	0	32816	32399	
324	0	32772	32437	
325	0	32692	32383	
326	0	32775	32031	
327	0	32780	32575	
328	0	32756	32167	
329	0	32820	32519	
330	0	32844	32391	
331	0	32880	32423	
332	0	32794	32407	
333	0	32836	32519	
334	0	32838	32535	
335	0	32800	32291	
336	0	32782	32077	
337	0	32700	31924	
338	0	32716	31868	
339	0	32748	32097	
340	0	32868	32263	
341	0	32840	32029	
342	0	32844	32455	
343	0	32878	32805	
344	0	32906	32876	
345	0	32788	32772	
346	0	32746	32311	
347	0	32764	32079	
348	0	32782	32167	
349	0	32822	31911	
350	0	32744	32021	
351	0	32788	32007	
352	0	32716	32330	
353	0	32608	32603	
354	0	32676	32801	
355	0	32576	32532	
356	0	32506	32376	
357	0	32496	32338	
358	0	32428	32588	
359	0	32544	32436	
360	0	32546	32358	
361	0	32588	32495	
362	0	32736	32437	
363	0	32852	32294	
364	0	32776	32119	
365	0	32794	31916	
366	0	32864	32185	
367	0	32862	32542	
368	0	32820	32725	
369	0	32792	32903	
370	0	32828	32722	
371	0	32880	32575	
372	0	32916	32647	
373	0	32828	32468	
374	0	32676	32487	
375	0	32750	32263	
376	0	33038	32103	
377	0	33194	32156	
378	0	33344	32118	
379	0	33506	32071	
380	0	33504	32295	
381	0	33544	32615	
382	0	33520	32418	
383	0	33700	32371	
384	0	33710	32151	
385	0	33690	32308	
386	0	33640	32519	
387	0	33552	32420	
388	0	33450	32406	
389	0	33409	32599	
390	0	33180	32678	
391	0	32948	32495	
392	0	32856	32239	
393	0	32692	32679	
394	0	32496	32263	
395	0	32412	32204	
396	0	32380	32711	
397	0	32432	32559	
398	0	32352	32327	
399	0	32508	32533	
400	0	32524	32678	
401	0	32508	32227	
402	0	32538	32185	
403	0	32581	32537	
404	0	32436	32311	
405	0	32220	32663	
406	0	32062	32552	
407	0	32048	32239	
408	0	32206	32708	
409	0	32206	32463	
410	0	32156	32163	
411	0	32066	32607	
412	0	31984	32589	
413	0	31974	32321	
414	0	32098	32262	
415	0	32228	32494	
416	0	32308	32241	
417	0	32360	32343	
418	0	32382	32548	
419	0	32428	32390	
420	0	32576	32135	
421	0	32632	32263	
422	0	32828	32409	
423	0	32884	32503	
424	0	32988	33159	
425	0	32996	32971	
426	0	33002	32999	
427	0	33064	33095	
428	0	33012	32261	
429	0	32996	32066	
430	0	33044	32087	
431	0	33038	31037	
432	0	32996	31252	
433	0	33116	31718	
434	0	33000	32602	
435	0	33036	32935	
436	0	33020	32667	
437	0	33004	32562	
438	0	32988	32207	
439	0	33004	32244	
440	0	32904	32634	
441	0	32847	32670	
442	0	32950	33031	
443	0	32992	32985	
444	0	32902	32804	
445	0	32928	32711	
446	0	32844	32469	
447	0	32836	32309	
448	0	32900	32199	
449	0	32880	32308	
450	0	32842	32383	
451	0	32808	32479	
452	0	32752	32463	
453	0	32738	32462	
454	0	32856	32325	
455	0	32896	32023	
456	0	32784	32052	
457	0	32772	32531	
458	0	32898	32741	
459	0	32848	32564	
460	0	32856	32490	
461	0	32748	32447	
462	0	32832	32335	
463	0	32852	31975	
464	0	32775	31862	
465	0	32896	32025	
466	0	32849	32045	
467	0	32794	32284	
468	0	32813	32449	
469	0	32862	32564	
470	0	32764	32540	
471	0	32822	32708	
472	0	32824	32604	
473	0	32832	32646	
474	0	32828	32465	
475	0	32840	32474	
476	0	32830	32436	
477	0	32740	32495	
478	0	32676	32377	
479	0	32818	32303	
480	0	32826	32402	
481	0	32836	32474	
482	0	32836	32351	
483	0	32790	32239	
484	0	32750	32132	
485	0	32858	32220	
486	0	32828	32167	
487	0	32858	31897	
488	0	32852	32263	
489	0	32810	32543	
490	0	32770	32420	
491	0	32804	32599	
492	0	32770	32858	
493	0	32750	33061	
494	0	32794	32854	
495	0	32770	32775	
496	0	32856	32711	
497	0	32908	32414	
498	0	32836	31907	
499	0	32842	31525	
500	0	32784	31636	
501	0	32780	32124	
502	0	32762	32307	
503	0	32794	32327	
504	0	32794	32489	
505	0	32802	32327	
506	0	32804	32405	
507	0	32760	32617	
508	0	32748	32541	
509	0	32788	32615	
510	0	32854	32489	
511	0	32892	31970	
512	0	32812	32294	
513	0	32790	32828	
514	0	32820	32682	
515	0	32758	33031	
516	0	32796	32543	
517	0	32788	32391	
518	0	32716	32305	
519	0	32775	32046	
520	0	32790	31327	
521	0	32764	31770	
522	0	32852	32428	
523	0	32744	32828	
524	0	32836	33215	
525	0	32750	33031	
526	0	32814	32247	
527	0	32756	31878	
528	0	32812	32083	
529	0	32840	32031	
530	0	32848	31815	
531	0	32750	31951	
532	0	32832	32340	
533	0	32685	32691	
534	0	32762	32447	
535	0	32818	32515	
536	0	32790	32615	
537	0	32856	32855	
538	0	32830	32607	
539	0	32748	32430	
540	0	32790	32458	
541	0	32828	32863	
542	0	32820	32608	
543	0	32924	32007	
544	0	32808	31890	
545	0	32724	32354	
546	0	32772	32567	
547	0	32836	32511	
548	0	32796	32346	
549	0	32758	32141	
550	0	32810	32194	
551	0	32766	32442	
552	0	32868	32647	
553	0	32816	32842	
554	0	32813	32860	
555	0	32864	32543	
556	0	32756	32415	
557	0	32858	32567	
558	0	32704	32103	
559	0	32721	31639	
560	0	32860	31770	
561	0	32764	32028	
562	0	32750	32478	
563	0	32736	32711	
564	0	32816	32517	
565	0	32796	32660	
566	0	32838	32756	
567	0	32794	32895	
568	0	32766	32703	
569	0	32828	32532	
570	0	32708	32262	
571	0	32880	32500	
572	0	32844	32573	
573	0	32804	32519	
574	0	32800	32727	
575	0	32780	32772	
576	0	32754	32860	
577	0	32756	32532	
578	0	32790	32282	
579	0	32742	32150	
580	0	32873	31823	
581	0	32801	31694	
582	0	32800	31378	
583	0	32788	31650	
584	0	32784	32250	
585	0	32816	32871	
586	0	32836	32963	
587	0	32732	32878	
588	0	32824	32565	
589	0	32772	32354	
590	0	32806	32404	
591	0	32774	32406	
592	0	32790	32679	
593	0	32836	32870	
594	0	32788	32775	
595	0	32810	32551	
596	0	32756	32244	
597	0	32728	32295	
598	0	32782	32359	
599	0	32799	32342	
600	0	32838	32710	
601	0	32766	32332	
602	0	32874	32407	
603	0	32824	32889	
604	0	32718	32420	
605	0	32812	32355	
606	0	32746	32566	
607	0	32762	32224	
608	0	32782	31988	
609	0	32912	32113	
610	0	32852	31846	
611	0	32764	32254	
612	0	32820	32625	
613	0	32700	32299	
614	0	32796	32183	
615	0	32852	32020	
616	0	32900	32343	
617	0	32712	32516	
618	0	32852	32572	
619	0	32834	32587	
620	0	32728	32554	
621	0	32816	32811	
622	0	32792	32804	
623	0	32748	32919	
624	0	32840	32738	
625	0	32828	32111	
626	0	32848	31964	
627	0	32774	31959	
628	0	32796	32111	
629	0	32764	32263	
630	0	32752	32467	
631	0	32784	32568	
632	0	32806	32554	
633	0	32788	32454	
634	0	32788	32341	
635	0	32840	32519	
636	0	32913	32597	
637	0	32840	32519	
638	0	32774	32567	
639	0	32792	32756	
640	0	32784	32550	
641	0	32750	32343	
642	0	32756	32303	
643	0	32824	32325	
644	0	32893	32407	
645	0	32824	32447	
646	0	32721	32419	
647	0	32760	32295	
648	0	32841	32338	
649	0	32822	32207	
650	0	32940	32109	
651	0	32766	32254	
652	0	32788	32276	
653	0	32716	32314	
654	0	32742	32566	
655	0	32824	32772	
656	0	32796	32775	
657	0	32775	32447	
658	0	32862	32599	
659	0	32858	32477	
660	0	32724	32367	
661	0	32774	32226	
662	0	32756	32343	
663	0	32838	32543	
664	0	32783	32754	
665	0	32696	32548	
666	0	32774	32404	
667	0	32804	32454	
668	0	32775	32838	
669	0	32816	32980	
670	0	32887	33072	
671	0	32808	33167	
672	0	32852	32815	
673	0	32853	32327	
674	0	32876	32501	
675	0	32800	32222	
676	0	32756	32028	
677	0	32784	31783	
678	0	32838	32311	
679	0	32858	32582	
680	0	32782	32353	
681	0	32796	32116	
682	0	32748	32676	
683	0	32770	32579	
684	0	32775	32503	
685	0	32774	32346	
686	0	32756	31666	
687	0	32862	32260	
688	0	32736	32639	
689	0	32892	32423	
690	0	32876	32886	
691	0	32839	32716	
692	0	32754	33259	
693	0	32836	32814	
694	0	32736	33031	
695	0	32762	32668	
696	0	32736	32387	
697	0	32720	32399	
698	0	32748	31886	
699	0	32784	31958	
700	0	32888	32490	
701	0	32820	32583	
702	0	32816	32339	
703	0	32760	32551	
704	0	32816	32613	
705	0	32817	32564	
706	0	32780	32263	
707	0	32768	32284	
708	0	32872	32276	
709	0	32766	32407	
710	0	32760	32698	
711	0	32820	32846	
712	0	32804	32847	
713	0	32781	32924	
714	0	32772	32892	
715	0	32800	32903	
716	0	32825	32836	
717	0	32768	32607	
718	0	32778	32391	
719	0	32898	32116	
720	0	32762	32039	
721	0	32751	32278	
722	0	32842	32398	
723	0	32890	32458	
724	0	32822	32495	
725	0	32844	32439	
726	0	32746	32294	
727	0	32760	32491	
728	0	32912	32494	
729	0	32929	32417	
730	0	32786	32495	
731	0	32692	32424	
732	0	32740	32132	
733	0	32778	31886	
734	0	32774	31967	
735	0	32796	32300	
736	0	32780	32495	
737	0	32766	32559	
738	0	32808	32836	
739	0	32864	32903	
740	0	32812	32618	
741	0	32838	32775	
742	0	32816	32833	
743	0	32760	32750	
744	0	32788	32431	
745	0	32772	32390	
746	0	32744	32414	
747	0	32775	32427	
748	0	32821	32227	
749	0	32888	31846	
750	0	32840	31949	
751	0	32814	32418	
752	0	32812	32567	
753	0	32756	32603	
754	0	32814	32662	
755	0	32767	32775	
756	0	32784	32263	
757	0	32834	32223	
758	0	32823	32410	
759	0	32824	32775	
760	0	32780	32943	
761	0	32750	32591	
762	0	32848	32455	
763	0	32746	32959	
764	0	32790	32923	
765	0	32894	32419	
766	0	32836	32263	
767	0	32804	32414	
768	0	32736	32162	
769	0	32784	31943	
770	0	32820	31737	
771	0	32830	31919	
772	0	32858	32295	
773	0	32666	32111	
774	0	32708	32263	
775	0	32797	31898	
776	0	32840	32471	
777	0	32844	32575	
778	0	32738	32439	
779	0	32828	32997	
780	0	32810	32628	
781	0	32822	32314	
782	0	32902	32509	
783	0	32736	32473	
784	0	32710	32551	
785	0	32776	32732	
786	0	32826	32327	
787	0	32730	32173	
788	0	32876	32552	
789	0	32828	32351	
790	0	32806	32052	
791	0	32792	32339	
792	0	32796	32308	
793	0	32759	32446	
794	0	32775	32884	
795	0	32788	32422	
796	0	32816	32815	
797	0	32846	32398	
798	0	32796	32500	
799	0	32769	32230	
800	0	32732	32295	
801	0	32764	32359	
802	0	32796	32297	
803	0	32809	32437	
804	0	32828	31975	
805	0	32858	32353	
806	0	32816	32530	
807	0	32776	32263	
808	0	32822	32859	
809	0	32856	32551	
810	0	32798	32791	
811	0	32753	32515	
812	0	32786	32942	
813	0	32782	32695	
814	0	32792	32292	
815	0	32785	32354	
816	0	32812	31943	
817	0	32718	32295	
818	0	32776	31558	
819	0	32774	31939	
820	0	32872	32455	
821	0	32828	32487	
822	0	32828	32434	
823	0	32806	32436	
824	0	32750	32197	
825	0	32736	32263	
826	0	32748	32378	
827	0	32736	32221	
828	0	32802	32471	
829	0	32834	32545	
830	0	32872	32644	
831	0	32812	32554	
832	0	32816	32510	
833	0	32784	32453	
834	0	32800	32172	
835	0	32801	32039	
836	0	32812	32303	
837	0	32800	32462	
838	0	32756	32414	
839	0	32786	32548	
840	0	32808	32551	
841	0	32849	32751	
842	0	32726	32575	
843	0	32824	32391	
844	0	32927	32101	
845	0	32826	32175	
846	0	32788	32199	
847	0	32774	32227	
848	0	32775	32144	
849	0	32782	32108	
850	0	32728	32190	
851	0	32774	32358	
852	0	32902	32319	
853	0	32884	32232	
854	0	32821	32338	
855	0	32740	32246	
856	0	32674	32263	
857	0	32772	32377	
858	0	32820	32422	
859	0	32842	32351	
860	0	32772	32163	
861	0	32794	32370	
862	0	32852	32542	
863	0	32776	32611	
864	0	32794	32503	
865	0	32812	32380	
866	0	32796	32170	
867	0	32816	32199	
868	0	32800	32346	
869	0	32732	32501	
870	0	32736	32448	
871	0	32762	32439	
872	0	32784	32475	
873	0	32814	32371	
874	0	32852	32424	
875	0	32782	32428	
876	0	32876	32514	
877	0	32894	32567	
878	0	32704	32589	
879	0	32724	32316	
880	0	32790	32223	
881	0	32827	32071	
882	0	32825	32391	
883	0	32832	32559	
884	0	32765	32432	
885	0	32772	32327	
886	0	32788	32212	
887	0	32852	32682	
888	0	32713	32791	
889	0	32783	32767	
890	0	32872	32823	
891	0	32762	32818	
892	0	32836	32711	
893	0	32812	32729	
894	0	32904	32674	
895	0	32761	32503	
896	0	32721	32543	
897	0	32808	32406	
898	0	32798	32427	
899	0	32782	32507	
900	0	32820	32519	
901	0	32832	32501	
902	0	32788	32556	
903	0	32782	32450	
904	0	32768	32292	
905	0	32828	32125	
906	0	32852	31844	
907	0	32888	31862	
908	0	32820	32181	
909	0	32740	32023	
910	0	32714	32191	
911	0	32714	32319	
912	0	32696	32378	
913	0	32762	32022	
914	0	32865	32146	
915	0	32840	32553	
916	0	32806	32810	
917	0	32804	32383	
918	0	32796	32555	
919	0	32814	32598	
920	0	32748	32588	
921	0	32796	32775	
922	0	32816	32367	
923	0	32802	32687	
924	0	32788	32670	
925	0	32871	32365	
926	0	32800	32495	
927	0	32784	32509	
928	0	32740	32421	
929	0	32716	32363	
930	0	32804	32490	
931	0	32814	32672	
932	0	32852	32798	
933	0	32856	32556	
934	0	32808	32367	
935	0	32791	32263	
936	0	32830	32170	
937	0	32855	31831	
938	0	32706	31863	
939	0	32797	31979	
940	0	32696	32162	
941	0	32804	32182	
942	0	32816	32519	
943	0	32892	32746	
944	0	32854	32702	
945	0	32836	32539	
946	0	32832	32575	
947	0	32664	32607	
948	0	32760	32506	
949	0	32726	32399	
950	0	32816	32407	
951	0	32866	32374	
952	0	32836	32383	
953	0	32742	32111	
954	0	32774	32071	
955	0	32870	32118	
956	0	32792	32199	
957	0	32828	32379	
958	0	32840	32455	
959	0	32764	32467	
960	0	32908	32455	
961	0	32849	32326	
962	0	32829	32399	
963	0	32708	32551	
964	0	32746	32438	
965	0	32766	32332	
966	0	32816	32461	
967	0	32838	32658	
968	0	32703	32508	
969	0	32697	32426	
970	0	32802	32508	
971	0	32820	32480	
972	0	32772	32295	
973	0	32804	32423	
974	0	32774	32324	
975	0	32826	32456	
976	0	32821	32620	
977	0	32788	32723	
978	0	32766	32717	
979	0	32832	32831	
980	0	32804	32678	
981	0	32775	32459	
982	0	32868	32516	
983	0	32844	32455	
984	0	32706	32489	
985	0	32816	32327	
986	0	32800	32325	
987	0	32830	32374	
988	0	32800	32454	
989	0	32760	32447	
990	0	32821	32439	
991	0	32852	32479	
992	0	32836	32299	
993	0	32708	32334	
994	0	32788	31740	
995	0	32800	31791	
996	0	32766	32315	
997	0	32774	32615	
998	0	32806	32580	
999	0	32864	32426	
1000	0	32874	32373	
1001	0	32828	32527	
1002	0	32792	32662	
1003	0	32791	32615	
1004	0	32878	32642	
1005	0	32800	32711	
1006	0	32839	32717	
1007	0	32736	32791	
1008	0	32758	32164	
1009	0	32858	32119	
1010	0	32895	31991	
1011	0	32799	31782	
1012	0	32728	32493	
1013	0	32713	32083	
1014	0	32816	32686	
1015	0	32810	32428	
1016	0	32782	32507	
1017	0	32756	32951	
1018	0	32860	32423	
1019	0	32876	32359	
1020	0	32828	32358	
1021	0	32775	32263	
1022	0	32794	32439	
1023	0	32824	32647	
1024	0	32820	32599	
1025	0	32752	32572	
1026	0	32758	32062	
1027	0	32832	32196	
1028	0	32908	32203	
1029	0	32848	32404	
1030	0	32794	32357	
1031	0	32692	32548	
1032	0	32743	32454	
1033	0	32788	32387	
1034	0	32804	32372	
1035	0	32840	32460	
1036	0	32768	32660	
1037	0	32790	32561	
1038	0	32824	32143	
1039	0	32857	32041	
1040	0	32848	32154	
1041	0	32804	32465	
1042	0	32858	32752	
1043	0	32782	32940	
1044	0	32700	32646	
1045	0	32736	32519	
1046	0	32756	32535	
1047	0	32798	32478	
1048	0	32804	32356	
1049	0	32854	32284	
1050	0	32760	32178	
1051	0	32776	32118	
1052	0	32764	32004	
1053	0	32791	32169	
1054	0	32708	32047	
1055	0	32838	32343	
1056	0	32860	32413	
1057	0	32842	32263	
1058	0	32782	32285	
1059	0	32820	32295	
1060	0	32772	32399	
1061	0	32840	32463	
1062	0	32846	32540	
1063	0	32832	32623	
1064	0	32768	32775	
1065	0	32818	32903	
1066	0	32741	32751	
1067	0	32832	32353	
1068	0	32776	32236	
1069	0	32768	32415	
1070	0	32840	32213	
1071	0	32822	31807	
1072	0	32772	32480	
1073	0	32759	31994	
1074	0	32860	32029	
1075	0	32764	32075	
1076	0	32829	32199	
1077	0	32796	32498	
1078	0	32729	32549	
1079	0	32772	32511	
1080	0	32778	32438	
1081	0	32816	32511	
1082	0	32736	32538	
1083	0	32757	32749	
1084	0	32799	32842	
1085	0	32812	32648	
1086	0	32868	32498	
1087	0	32876	32428	
1088	0	32834	32623	
1089	0	32820	32724	
1090	0	32822	32847	
1091	0	32788	32759	
1092	0	32766	32342	
1093	0	32746	32232	
1094	0	32714	32391	
1095	0	32762	32391	
1096	0	32826	32119	
1097	0	32852	32134	
1098	0	32916	32283	
1099	0	32844	32447	
1100	0	32724	32519	
1101	0	32764	32431	
1102	0	32775	32535	
1103	0	32878	32559	
1104	0	32848	32451	
1105	0	32768	32263	
1106	0	32768	32180	
1107	0	32775	32055	
1108	0	32776	32199	
1109	0	32888	32425	
1110	0	32832	32551	
1111	0	32830	32551	
1112	0	32804	32430	
1113	0	32740	31990	
1114	0	32728	32081	
1115	0	32800	32358	
1116	0	32858	32231	
1117	0	32792	32159	
1118	0	32784	32237	
1119	0	32802	32187	
1120	0	32796	32166	
1121	0	32866	32207	
1122	0	32804	32391	
1123	0	32806	32164	
1124	0	32798	32070	
1125	0	32824	32346	
1126	0	32824	32459	
1127	0	32824	32444	
1128	0	32736	32710	
1129	0	32760	32331	
1130	0	32852	32239	
1131	0	32792	32190	
1132	0	32848	31927	
1133	0	32782	31935	
1134	0	32709	32110	
1135	0	32704	32251	
1136	0	32824	32548	
1137	0	32810	32484	
1138	0	32856	32403	
1139	0	32846	32381	
1140	0	32850	32252	
1141	0	32788	32247	
1142	0	32824	32299	
1143	0	32796	32259	
1144	0	32828	32375	
1145	0	32716	32375	
1146	0	32780	32314	
1147	0	32775	32087	
1148	0	32775	32216	
1149	0	32862	32223	
1150	0	32775	32332	
1151	0	32841	32420	
1152	0	32828	32347	
1153	0	32870	32428	
1154	0	32808	32475	
1155	0	32836	32399	
1156	0	32756	32131	
1157	0	32748	31964	
1158	0	32836	32220	
1159	0	32814	32638	
1160	0	32817	32214	
1161	0	32788	32609	
1162	0	32793	32255	
1163	0	32696	32319	
1164	0	32732	32831	
1165	0	32806	32439	
1166	0	32860	32884	
1167	0	32822	32628	
1168	0	32824	32862	
1169	0	32844	32679	
1170	0	32817	32247	
1171	0	32804	32668	
1172	0	32732	32455	
1173	0	32788	31591	
1174	0	32804	31743	
1175	0	32758	31916	
1176	0	32792	31710	
1177	0	32760	31965	
1178	0	32770	31982	
1179	0	32796	32197	
1180	0	32882	32367	
1181	0	32888	32627	
1182	0	32866	32616	
1183	0	32816	32645	
1184	0	32824	32874	
1185	0	32854	33072	
1186	0	32775	32627	
1187	0	32750	32213	
1188	0	32746	32642	
1189	0	32818	32775	
1190	0	32798	32318	
1191	0	32762	32443	
1192	0	32776	32867	
1193	0	32672	32687	
1194	0	32792	32443	
1195	0	32841	32711	
1196	0	32780	32368	
1197	0	32720	32165	
1198	0	32804	32756	
1199	0	32754	32335	
1200	0	32804	32108	
1201	0	32837	31670	
1202	0	32826	31715	
1203	0	32782	32535	
1204	0	32794	31943	
1205	0	32776	32357	
1206	0	32816	32642	
1207	0	32828	32508	
1208	0	32938	32231	
1209	0	32842	32292	
1210	0	32849	32553	
1211	0	32762	32558	
1212	0	32692	32263	
1213	0	32644	31716	
1214	0	32632	32127	
1215	0	32708	32383	
1216	0	32696	32452	
1217	0	32648	32540	
1218	0	32660	32543	
1219	0	32756	32548	
1220	0	32775	32647	
1221	0	32775	32613	
1222	0	32756	32255	
1223	0	32940	32316	
1224	0	33006	32559	
1225	0	32958	32325	
1226	0	32840	32170	
1227	0	32938	32588	
1228	0	32928	32797	
1229	0	32900	32826	
1230	0	32924	32775	
1231	0	32900	32676	
1232	0	32900	32574	
1233	0	32824	32291	
1234	0	32812	31967	
1235	0	32814	31634	
1236	0	32868	31682	
1237	0	32916	32018	
1238	0	32928	32213	
1239	0	32932	32630	
1240	0	32798	32810	
1241	0	32858	32853	
1242	0	32825	32874	
1243	0	32824	32686	
1244	0	32942	32630	
1245	0	32900	32634	
1246	0	32748	32639	
1247	0	32688	32633	
1248	0	32672	32663	
1249	0	32736	32511	
1250	0	32740	32455	
1251	0	32732	32118	
1252	0	32832	31931	
1253	0	32742	31900	
1254	0	32678	31991	
1255	0	32764	32199	
1256	0	32732	32237	
1257	0	32860	32079	
1258	0	32856	32379	
1259	0	32734	32308	
1260	0	32876	32469	
1261	0	32820	32074	
1262	0	32832	32020	
1263	0	32756	32455	
1264	0	32728	32694	
1265	0	32912	32844	
1266	0	32797	32799	
1267	0	32740	32598	
1268	0	32680	32223	
1269	0	32712	32279	
1270	0	32644	32317	
1271	0	32648	32415	
1272	0	32668	32436	
1273	0	32732	32519	
1274	0	32800	32579	
1275	0	32820	32622	
1276	0	32892	32411	
1277	0	32746	32222	
1278	0	32745	31971	
1279	0	32890	31645	
1280	0	32868	31807	
1281	0	32817	32020	
1282	0	32782	32341	
1283	0	32772	32679	
1284	0	32852	32943	
1285	0	32888	32762	
1286	0	32910	32737	
1287	0	32740	32839	
1288	0	32797	32711	
1289	0	32824	32484	
1290	0	32822	32441	
1291	0	32876	32492	
1292	0	32926	32604	
1293	0	32704	32558	
1294	0	32804	32583	
1295	0	32808	32534	
1296	0	32762	32387	
1297	0	32784	32287	
1298	0	32794	32486	
1299	0	32712	32343	
1300	0	32756	32303	
1301	0	32748	32299	
1302	0	32854	32399	
1303	0	32840	32548	
1304	0	32791	32503	
1305	0	32684	32147	
1306	0	32673	32007	
1307	0	32855	32359	
1308	0	32848	32410	
1309	0	32792	32098	
1310	0	32820	32335	
1311	0	32775	32343	
1312	0	32694	32346	
1313	0	32828	32495	
1314	0	32728	32519	
1315	0	32804	32394	
1316	0	32817	31943	
1317	0	32812	31820	
1318	0	32838	32135	
1319	0	32782	32350	
1320	0	32844	32396	
1321	0	32822	32372	
1322	0	32772	32459	
1323	0	32780	32610	
1324	0	32800	32590	
1325	0	32804	32674	
1326	0	32800	32775	
1327	0	32711	32760	
1328	0	32836	32516	
1329	0	32736	32016	
1330	0	32823	31809	
1331	0	32752	31965	
1332	0	32728	32319	
1333	0	32822	32372	
1334	0	32740	32124	
1335	0	32848	32051	
1336	0	32820	32486	
1337	0	32818	32663	
1338	0	32828	32815	
1339	0	32876	32431	
1340	0	32746	32287	
1341	0	32798	32252	
1342	0	32870	32335	
1343	0	32754	32323	
1344	0	32676	32543	
1345	0	32684	32742	
1346	0	32804	32693	
1347	0	32750	32670	
1348	0	32622	32647	
1349	0	32474	32547	
1350	0	32524	32327	
1351	0	32556	32340	
1352	0	32513	32335	
1353	0	32480	32686	
1354	0	32572	32618	
1355	0	32730	32292	
1356	0	32838	32402	
1357	0	32768	32559	
1358	0	32752	32239	
1359	0	32744	32346	
1360	0	32792	32515	
1361	0	32838	32519	
1362	0	32870	32467	
1363	0	32878	32388	
1364	0	32892	32259	
1365	0	32860	32250	
1366	0	32900	32380	
1367	0	32720	32674	
1368	0	32752	32391	
1369	0	32806	32241	
1370	0	33094	32351	
1371	0	33326	32263	
1372	0	33460	32330	
1373	0	33390	32199	
1374	0	33612	32143	
1375	0	33608	32198	
1376	0	33616	32340	
1377	0	33632	32463	
1378	0	33752	32698	
1379	0	33706	32578	
1380	0	33492	32546	
1381	0	33412	32465	
1382	0	33452	32204	
1383	0	33287	32459	
1384	0	33052	32519	
1385	0	32964	32295	
1386	0	32854	32311	
1387	0	32696	32532	
1388	0	32512	32503	
1389	0	32244	32333	
1390	0	32316	32347	
1391	0	32425	32367	
1392	0	32484	32078	
1393	0	32474	32327	
1394	0	32450	32548	
1395	0	32586	32599	
1396	0	32556	32484	
1397	0	32522	32443	
1398	0	32512	32566	
1399	0	32344	32605	
1400	0	32306	32765	
1401	0	32308	32964	
1402	0	32288	32647	
1403	0	32422	32503	
1404	0	32188	32463	
1405	0	32124	32260	
1406	0	31976	32263	
1407	0	31884	32305	
1408	0	32016	32319	
1409	0	32164	32295	
1410	0	32304	32388	
1411	0	32408	32741	
1412	0	32422	32995	
1413	0	32494	33159	
1414	0	32576	32563	
1415	0	32664	31879	
1416	0	32718	31676	
1417	0	32884	31508	
1418	0	32948	31759	
1419	0	33044	32064	
1420	0	32998	32319	
1421	0	32988	32327	
1422	0	32881	32263	
1423	0	32982	32159	
1424	0	32981	32279	
1425	0	33032	32615	
1426	0	33100	32743	
1427	0	33100	32982	
1428	0	33164	32807	
1429	0	33072	32603	
1430	0	33047	32517	
1431	0	33028	32417	
1432	0	32960	32426	
1433	0	32930	32543	
1434	0	32935	32623	
1435	0	32956	32693	
1436	0	32854	32548	
1437	0	32824	32234	
1438	0	32897	32295	
1439	0	32843	32506	
1440	0	32876	32669	
1441	0	32940	32554	
1442	0	32784	32428	
1443	0	32840	32367	
1444	0	32852	32212	
1445	0	32856	32423	
1446	0	32788	32589	
1447	0	32790	32703	
1448	0	32836	32616	
1449	0	32868	32295	
1450	0	32808	31942	
1451	0	32794	32120	
1452	0	32710	32325	
1453	0	32756	32250	
1454	0	32925	31930	
1455	0	32804	31823	
1456	0	32756	32231	
1457	0	32836	32555	
1458	0	32828	32399	
1459	0	32807	32095	
1460	0	32848	32207	
1461	0	32872	32244	
1462	0	32792	32535	
1463	0	32768	32924	
1464	0	32844	32852	
1465	0	32860	32644	
1466	0	32845	32391	
1467	0	32775	32402	
1468	0	32788	32276	
1469	0	32782	32245	
1470	0	32856	32548	
1471	0	32832	32719	
1472	0	32732	32508	
1473	0	32800	32422	
1474	0	32822	32263	
1475	0	32852	32495	
1476	0	32888	32846	
1477	0	32728	32798	
1478	0	32762	32551	
1479	0	32900	32471	
1480	0	32856	32333	
1481	0	32872	32287	
1482	0	32872	32380	
1483	0	32738	32501	
1484	0	32721	32426	
1485	0	32740	32223	
1486	0	32775	31836	
1487	0	32868	31827	
1488	0	32684	32020	
1489	0	32810	32250	
1490	0	32844	32540	
1491	0	32798	32460	
1492	0	32724	32607	
1493	0	32738	32750	
1494	0	32876	32735	
1495	0	32847	32431	
1496	0	32801	32310	
1497	0	32856	32532	
1498	0	32737	32231	
1499	0	32780	32246	
1500	0	32758	32151	
1501	0	32908	32231	
1502	0	32792	32388	
1503	0	32788	32371	
1504	0	32788	32610	
1505	0	32800	32814	
1506	0	32824	33031	
1507	0	32920	32702	
1508	0	32740	32839	
1509	0	32744	32935	
1510	0	32872	32533	
1511	0	32844	32508	
1512	0	32836	32802	
1513	0	32801	32650	
1514	0	32780	32431	
1515	0	32772	32334	
1516	0	32830	32562	
1517	0	32824	32655	
1518	0	32742	32647	
1519	0	32806	32631	
1520	0	32840	32447	
1521	0	32756	32485	
1522	0	32705	32191	
1523	0	32712	32031	
1524	0	32794	32157	
1525	0	32839	32001	
1526	0	32750	31735	
1527	0	32871	32260	
1528	0	32788	32644	
1529	0	32826	32613	
1530	0	32775	32577	
1531	0	32775	32564	
1532	0	32758	32518	
1533	0	32836	32798	
1534	0	32796	32622	
1535	0	32884	32199	
1536	0	32836	32391	
1537	0	32836	32686	
1538	0	32822	32731	
1539	0	32816	32622	
1540	0	32792	32343	
1541	0	32808	32350	
1542	0	32800	32586	
1543	0	32668	32205	
1544	0	32646	32042	
1545	0	32900	32419	
1546	0	32732	32935	
1547	0	32768	32823	
1548	0	32884	32367	
1549	0	32836	32247	
1550	0	32784	32295	
1551	0	32824	32319	
1552	0	32816	31842	
1553	0	32824	31647	
1554	0	32849	32095	
1555	0	32857	32408	
1556	0	32772	32895	
1557	0	32848	32985	
1558	0	32808	33024	
1559	0	32848	32967	
1560	0	32740	32759	
1561	0	32708	32815	
1562	0	32780	32610	
1563	0	32806	32495	
1564	0	32822	32660	
1565	0	32732	32846	
1566	0	32788	32763	
1567	0	32854	32814	
1568	0	32852	32328	
1569	0	32832	32281	
1570	0	32812	32455	
1571	0	32784	32519	
1572	0	32808	32343	
1573	0	32740	32058	
1574	0	32748	32027	
1575	0	32756	31718	
1576	0	32836	32094	
1577	0	32902	32430	
1578	0	32848	32966	
1579	0	32704	32659	
1580	0	32872	32791	
1581	0	32954	32854	
1582	0	32872	32986	
1583	0	32796	32997	
1584	0	32812	32775	
1585	0	32718	32583	
1586	0	32684	32086	
1587	0	32756	31623	
1588	0	32760	31751	
1589	0	32698	31839	
1590	0	32844	31796	
1591	0	32704	31970	
1592	0	32788	32427	
1593	0	32849	32614	
1594	0	32808	32598	
1595	0	32741	32452	
1596	0	32792	32647	
1597	0	32934	32980	
1598	0	32774	32841	
1599	0	32775	32171	
1600	0	32788	32092	
1601	0	32820	32452	
1602	0	32884	32601	
1603	0	32744	32692	
1604	0	32892	32646	
1605	0	32760	32625	
1606	0	32748	32711	
1607	0	32800	32684	
1608	0	32752	32207	
1609	0	32700	31975	
1610	0	32852	32263	
1611	0	32849	32660	
1612	0	32820	32483	
1613	0	32796	32435	
1614	0	32860	32485	
1615	0	32722	32312	
1616	0	32926	32234	
1617	0	32832	32135	
1618	0	32786	32303	
1619	0	32872	32259	
1620	0	32710	32424	
1621	0	32714	32247	
1622	0	32716	32439	
1623	0	32844	32565	
1624	0	32750	32574	
1625	0	32834	32611	
1626	0	32827	32635	
1627	0	32808	32213	
1628	0	32814	32119	
1629	0	32845	32732	
1630	0	32788	32628	
1631	0	32784	32360	
1632	0	32836	32483	
1633	0	32761	32710	
1634	0	32762	32647	
1635	0	32732	32354	
1636	0	32848	32247	
1637	0	32836	32310	
1638	0	32788	32706	
1639	0	32852	32670	
1640	0	32844	32606	
1641	0	32812	32423	
1642	0	32764	32254	
1643	0	32802	32244	
1644	0	32820	32287	
1645	0	32776	32111	
1646	0	32782	32255	
1647	0	32794	32476	
1648	0	32758	32844	
1649	0	32749	32686	
1650	0	32800	32417	
1651	0	32800	32461	
1652	0	32764	32710	
1653	0	32742	32455	
1654	0	32798	32644	
1655	0	32772	32254	
1656	0	32846	32468	
1657	0	32800	32455	
1658	0	32840	32295	
1659	0	32840	32302	
1660	0	32756	32187	
1661	0	32740	32219	
1662	0	32788	32475	
1663	0	32828	32499	
1664	0	32878	32642	
1665	0	32870	32695	
1666	0	32832	32502	
1667	0	32924	32815	
1668	0	32826	32514	
1669	0	32824	32350	
1670	0	32780	32202	
1671	0	32768	31867	
1672	0	32794	31901	
1673	0	32802	32343	
1674	0	32692	32711	
1675	0	32847	32711	
1676	0	32742	32567	
1677	0	32804	32695	
1678	0	32772	32748	
1679	0	32720	32767	
1680	0	32820	32741	
1681	0	32872	32614	
1682	0	32864	32194	
1683	0	32772	32159	
1684	0	32770	32411	
1685	0	32720	32143	
1686	0	32700	31987	
1687	0	32768	31692	
1688	0	32826	31427	
1689	0	32788	31948	
1690	0	32850	32454	
1691	0	32776	32853	
1692	0	32804	33038	
1693	0	32798	33015	
1694	0	32822	32608	
1695	0	32744	32584	
1696	0	32820	32775	
1697	0	32670	32759	
1698	0	32772	32767	
1699	0	32804	32612	
1700	0	32788	32262	
1701	0	32860	32319	
1702	0	32900	32619	
1703	0	32808	32747	
1704	0	32826	32757	
1705	0	32806	32510	
1706	0	32832	32247	
1707	0	32770	32383	
1708	0	32784	32172	
1709	0	32802	32079	
1710	0	32736	32380	
1711	0	32764	32077	
1712	0	32774	32750	
1713	0	32856	32775	
1714	0	32872	32932	
1715	0	32794	32940	
1716	0	32860	32519	
1717	0	32728	32231	
1718	0	32756	31967	
1719	0	32856	31385	
1720	0	32844	31669	
1721	0	32878	32115	
1722	0	32780	32519	
1723	0	32692	33022	
1724	0	32693	32504	
1725	0	32834	31807	
1726	0	32801	31782	
1727	0	32788	32314	
1728	0	32958	32565	
1729	0	32910	32655	
1730	0	32767	32892	
1731	0	32775	32710	
1732	0	32840	32287	
1733	0	32742	32180	
1734	0	32738	32206	
1735	0	32748	32519	
1736	0	32812	32563	
1737	0	32757	32491	
1738	0	32868	32286	
1739	0	32816	32486	
1740	0	32804	32949	
1741	0	32918	32871	
1742	0	32868	32647	
1743	0	32853	32418	
1744	0	32812	32310	
1745	0	32730	32479	
1746	0	32812	32732	
1747	0	32800	32449	
1748	0	32864	32318	
1749	0	32764	32298	
1750	0	32710	32351	
1751	0	32756	32359	
1752	0	32800	32309	
1753	0	32836	32323	
1754	0	32872	32247	
1755	0	32838	32444	
1756	0	32780	32431	
1757	0	32764	32202	
1758	0	32764	32239	
1759	0	32892	32484	
1760	0	32807	32551	
1761	0	32810	32645	
1762	0	32814	32926	
1763	0	32725	32775	
1764	0	32722	32588	
1765	0	32816	32060	
1766	0	32718	31948	
1767	0	32800	32169	
1768	0	32751	32311	
1769	0	32762	31530	
1770	0	32775	31607	
1771	0	32814	32314	
1772	0	32784	32591	
1773	0	32716	32606	
1774	0	32780	32388	
1775	0	32901	32596	
1776	0	32820	32932	
1777	0	32804	32729	
1778	0	32798	32543	
1779	0	32772	32262	
1780	0	32752	32452	
1781	0	32749	32847	
1782	0	32788	32702	
1783	0	32848	32367	
1784	0	32844	32420	
1785	0	32804	32694	
1786	0	32868	32822	
1787	0	32814	32408	
1788	0	32804	32166	
1789	0	32828	32559	
1790	0	32712	32516	
1791	0	32824	32039	
1792	0	32768	32220	
1793	0	32820	32216	
1794	0	32824	32026	
1795	0	32740	31815	
1796	0	32800	32215	
1797	0	32716	32815	
1798	0	32872	32815	
1799	0	32906	32423	
1800	0	32798	32367	
1801	0	32825	32516	
1802	0	32768	32452	
1803	0	32858	32564	
1804	0	32796	32391	
1805	0	32878	32287	
1806	0	32866	32443	
1807	0	32790	32566	
1808	0	32666	32439	
1809	0	32804	32383	
1810	0	32846	32039	
1811	0	32820	32007	
1812	0	32858	32134	
1813	0	32820	32583	
1814	0	32864	32911	
1815	0	32709	32746	
1816	0	32788	32539	
1817	0	32790	32477	
1818	0	32860	32679	
1819	0	32788	32674	
1820	0	32770	32239	
1821	0	32794	32292	
1822	0	32832	32526	
1823	0	32730	32770	
1824	0	32916	32247	
1825	0	32812	32111	
1826	0	32810	32404	
1827	0	32772	32668	
1828	0	32772	32722	
1829	0	32788	32422	
1830	0	32844	32151	
1831	0	32831	32183	
1832	0	32766	32148	
1833	0	32686	32299	
1834	0	32772	32183	
1835	0	32744	32311	
1836	0	32780	32478	
1837	0	32876	32431	
1838	0	32798	32563	
1839	0	32822	32558	
1840	0	32822	32313	
1841	0	32826	32391	
1842	0	32838	32494	
1843	0	32808	32391	
1844	0	32800	32482	
1845	0	32806	32654	
1846	0	32772	32663	
1847	0	32740	32727	
1848	0	32860	32514	
1849	0	32736	32425	
1850	0	32768	32282	
1851	0	32768	32261	
1852	0	32808	32244	
1853	0	32838	32026	
1854	0	32794	32478	
1855	0	32752	32463	
1856	0	32796	32692	
1857	0	32844	32519	
1858	0	32775	32263	
1859	0	32888	32719	
1860	0	32836	32430	
1861	0	32872	32340	
1862	0	32652	32083	
1863	0	32700	32066	
1864	0	32776	32092	
1865	0	32800	32230	
1866	0	32764	32295	
1867	0	32849	32470	
1868	0	32852	32688	
1869	0	32764	32620	
1870	0	32732	32356	
1871	0	32872	32187	
1872	0	32862	32204	
1873	0	32856	32436	
1874	0	32776	32591	
1875	0	32744	32503	
1876	0	32724	32555	
1877	0	32753	32490	
1878	0	32832	32567	
1879	0	32824	32893	
1880	0	32822	32700	
1881	0	32852	32356	
1882	0	32784	32186	
1883	0	32830	32244	
1884	0	32832	32127	
1885	0	32808	31999	
1886	0	32796	32052	
1887	0	32736	32044	
1888	0	32756	32296	
1889	0	32772	32732	
1890	0	32760	33123	
1891	0	32860	32903	
1892	0	32862	32547	
1893	0	32841	32958	
1894	0	32794	33045	
1895	0	32758	32583	
1896	0	32840	32105	
1897	0	32761	31634	
1898	0	32844	31741	
1899	0	32824	32354	
1900	0	32792	32428	
1901	0	32786	32343	
1902	0	32836	32095	
1903	0	32838	32148	
1904	0	32744	32807	
1905	0	32786	32559	
1906	0	32757	32110	
1907	0	32814	32353	
1908	0	32820	32486	
1909	0	32810	32747	
1910	0	32789	32748	
1911	0	32800	32110	
1912	0	32853	32090	
1913	0	32790	32047	
1914	0	32816	32263	
1915	0	32784	32769	
1916	0	32760	32462	
1917	0	32668	32959	
1918	0	32836	32886	
1919	0	32879	32548	
1920	0	32748	32629	
1921	0	32768	33044	
1922	0	32738	32838	
1923	0	32828	32217	
1924	0	32772	32231	
1925	0	32780	32611	
1926	0	32864	32502	
1927	0	32892	32004	
1928	0	32836	31796	
1929	0	32844	31909	
1930	0	32737	32322	
1931	0	32769	32454	
1932	0	32790	32471	
1933	0	32820	32532	
1934	0	32764	32319	
1935	0	32908	32339	
1936	0	32788	32223	
1937	0	32812	32070	
1938	0	32838	32263	
1939	0	32773	32618	
1940	0	32848	32719	
1941	0	32748	32634	
1942	0	32764	32558	
1943	0	32782	32375	
1944	0	32804	32471	
1945	0	32844	32839	
1946	0	32892	32775	
1947	0	32742	32389	
1948	0	32776	32153	
1949	0	32832	32327	
1950	0	32728	32335	
1951	0	32704	32463	
1952	0	32836	32263	
1953	0	32752	31998	
1954	0	32794	32194	
1955	0	32772	32490	
1956	0	32792	32635	
1957	0	32760	32923	
1958	0	32824	32407	
1959	0	32798	32438	
1960	0	32810	32248	
1961	0	32752	32129	
1962	0	32808	32506	
1963	0	32863	32431	
1964	0	32796	32775	
1965	0	32708	32031	
1966	0	32841	32442	
1967	0	32768	32606	
1968	0	32736	32216	
1969	0	32856	32463	
1970	0	32862	32231	
1971	0	32796	32655	
1972	0	32836	32503	
1973	0	32852	32341	
1974	0	32804	32679	
1975	0	32712	32206	
1976	0	32736	32173	
1977	0	32772	32154	
1978	0	32828	31998	
1979	0	32842	32587	
1980	0	32794	32293	
1981	0	32816	32358	
1982	0	32864	32903	
1983	0	32788	32582	
1984	0	32782	33047	
1985	0	32844	32674	
1986	0	32856	32566	
1987	0	32770	32845	
1988	0	32836	32093	
1989	0	32778	32187	
1990	0	32800	31775	
1991	0	32820	31904	
1992	0	32772	32149	
1993	0	32848	32238	
1994	0	32808	32215	
1995	0	32792	32340	
1996	0	32751	32420	
1997	0	32732	32375	
1998	0	32832	32391	
1999	0	32816	32438	
2000	0	32780	32483	
2001	0	32732	32583	
2002	0	32748	32775	
2003	0	32736	32668	
2004	0	32736	32647	
2005	0	32789	32711	
2006	0	32852	32490	
2007	0	32742	32334	
2008	0	32840	32494	
2009	0	32818	32129	
2010	0	32853	32502	
2011	0	32788	32071	
2012	0	32802	32199	
2013	0	32846	32038	
2014	0	32826	32214	
2015	0	32764	32239	
2016	0	32834	32225	
2017	0	32828	32228	
2018	0	32804	32168	
2019	0	32794	32378	
2020	0	32862	32466	
2021	0	32842	32839	
2022	0	32878	33143	
2023	0	32818	32812	
2024	0	32736	32311	
2025	0	32709	31957	
2026	0	32780	31653	
2027	0	32772	31739	
2028	0	32708	32148	
2029	0	32804	32174	
2030	0	32864	32255	
2031	0	32816	32331	
2032	0	32801	32471	
2033	0	32820	32643	
2034	0	32788	32771	
2035	0	32784	32634	
2036	0	32806	32374	
2037	0	32814	32148	
2038	0	32764	32270	
2039	0	32756	32385	
2040	0	32821	32175	
2041	0	32892	32175	
2042	0	32820	32135	
2043	0	32778	32367	
2044	0	32860	32844	
2045	0	32826	33010	
2046	0	32764	33012	
2047	0	32794	33055	
2048	0	32748	32463	
2049	0	32726	32647	
2050	0	32784	32279	
2051	0	32769	32163	
2052	0	32832	32420	
2053	0	32740	32599	
2054	0	32748	32799	
2055	0	32800	32810	
2056	0	32880	32912	
2057	0	32900	32543	
2058	0	32872	31831	
2059	0	32772	32149	
2060	0	32876	32042	
2061	0	32877	31967	
2062	0	32768	32350	
2063	0	32758	32548	
2064	0	32782	31975	
2065	0	32748	32356	
2066	0	32798	32687	
2067	0	32818	32397	
2068	0	32894	32439	
2069	0	32760	32926	
2070	0	32838	33196	
2071	0	32804	32732	
2072	0	32854	32663	
2073	0	32852	32893	
2074	0	32806	32292	
2075	0	32796	32052	
2076	0	32768	32047	
2077	0	32756	31671	
2078	0	32758	32027	
2079	0	32758	32471	
2080	0	32768	31972	
2081	0	32820	32574	
2082	0	32756	32507	
2083	0	32842	32820	
2084	0	32943	32868	
2085	0	32868	32519	
2086	0	32804	32740	
2087	0	32852	32454	
2088	0	32772	32775	
2089	0	32772	32406	
2090	0	32692	32539	
2091	0	32782	32382	
2092	0	32776	32407	
2093	0	32845	32444	
2094	0	32840	32391	
2095	0	32748	32559	
2096	0	32766	32630	
2097	0	32734	32678	
2098	0	32756	32618	
2099	0	32772	32407	
2100	0	32832	32405	
2101	0	32884	32289	
2102	0	32836	32148	
2103	0	32841	32423	
2104	0	32828	32571	
2105	0	32838	32294	
2106	0	32748	32103	
2107	0	32865	32455	
2108	0	32872	32831	
2109	0	32814	32951	
2110	0	32702	32759	
2111	0	32857	32628	
2112	0	32816	32404	
2113	0	32812	32332	
2114	0	32772	32343	
2115	0	32790	32863	
2116	0	32820	32766	
2117	0	32848	32319	
2118	0	32742	32167	
2119	0	32716	32115	
2120	0	32788	32310	
2121	0	32709	31943	
2122	0	32782	31591	
2123	0	32764	31959	
2124	0	32838	32476	
2125	0	32816	32499	
2126	0	32844	32439	
2127	0	32856	32882	
2128	0	32844	32743	
2129	0	32836	32469	
2130	0	32856	32335	
2131	0	32726	32279	
2132	0	32832	32243	
2133	0	32775	32343	
2134	0	32776	32439	
2135	0	32764	32623	
2136	0	32840	32519	
2137	0	32776	32565	
2138	0	32776	32615	
2139	0	32836	32383	
2140	0	32738	32402	
2141	0	32832	32407	
2142	0	32856	32450	
2143	0	32828	32578	
2144	0	32812	32547	
2145	0	32700	32686	
2146	0	32724	32455	
2147	0	32800	32106	
2148	0	32856	32007	
2149	0	32910	32195	
2150	0	32775	32582	
2151	0	32790	32330	
2152	0	32792	32212	
2153	0	32808	32258	
2154	0	32810	32363	
2155	0	32794	32578	
2156	0	32810	32730	
2157	0	32836	32114	
2158	0	32840	32135	
2159	0	32760	32741	
2160	0	32775	32943	
2161	0	32826	32641	
2162	0	32729	32207	
2163	0	32737	32063	
2164	0	32824	32164	
2165	0	32888	32325	
2166	0	32772	32290	
2167	0	32868	32404	
2168	0	32852	32407	
2169	0	32780	32263	
2170	0	32804	32391	
2171	0	32782	32516	
2172	0	32856	32647	
2173	0	32764	32247	
2174	0	32754	31908	
2175	0	32725	32324	
2176	0	32775	32279	
2177	0	32752	32391	
2178	0	32640	32903	
2179	0	32736	32743	
2180	0	32772	32460	
2181	0	32804	32610	
2182	0	32840	32751	
2183	0	32834	32263	
2184	0	32814	32411	
2185	0	32808	32622	
2186	0	32808	32135	
2187	0	32810	32327	
2188	0	32788	32516	
2189	0	32814	32182	
2190	0	32934	32673	
2191	0	32904	32883	
2192	0	32868	32519	
2193	0	32844	32514	
2194	0	32862	32474	
2195	0	32682	32406	
2196	0	32640	32157	
2197	0	32628	32007	
2198	0	32574	32434	
2199	0	32618	32075	
2200	0	32622	32194	
2201	0	32710	32583	
2202	0	32776	32559	
2203	0	32790	32423	
2204	0	32784	32510	
2205	0	32872	32612	
2206	0	32997	32551	
2207	0	33092	32303	
2208	0	33016	32028	
2209	0	32994	32447	
2210	0	32946	32688	
2211	0	32908	32519	
2212	0	32958	32604	
2213	0	32884	32820	
2214	0	32868	33023	
2215	0	32902	32695	
2216	0	32812	32397	
2217	0	32912	32468	
2218	0	32900	32855	
2219	0	32924	32391	
2220	0	32896	31631	
2221	0	32834	31412	
2222	0	32800	31751	
2223	0	32725	31854	
2224	0	32728	31743	
2225	0	32760	32414	
2226	0	32852	32554	
2227	0	32930	32164	
2228	0	32812	32864	
2229	0	32756	33398	
2230	0	32688	32791	
2231	0	32728	33077	
2232	0	32726	32487	
2233	0	32702	32295	
2234	0	32750	32586	
2235	0	32711	32130	
2236	0	32708	32356	
2237	0	32736	32573	
2238	0	32796	32263	
2239	0	32801	32519	
2240	0	32826	32678	
2241	0	32868	32334	
2242	0	32802	32463	
2243	0	32830	32775	
2244	0	32804	32542	
2245	0	32840	32300	
2246	0	32808	32623	
2247	0	32788	32839	
2248	0	32808	32213	
2249	0	32708	32147	
2250	0	32726	32321	
2251	0	32702	31998	
2252	0	32702	32086	
2253	0	32572	32606	
2254	0	32720	32455	
2255	0	32722	32151	
2256	0	32748	32402	
2257	0	32772	32118	
2258	0	32836	32325	
2259	0	32820	32644	
2260	0	32772	32468	
2261	0	32814	32343	
2262	0	32996	32711	
2263	0	32888	32694	
2264	0	32878	32358	
2265	0	32814	32644	
2266	0	32812	32331	
2267	0	32770	32263	
2268	0	32794	32255	
2269	0	32812	32631	
2270	0	32818	32836	
2271	0	32807	32364	
2272	0	32846	32518	
2273	0	32868	32711	
2274	0	32868	32205	
2275	0	32812	32673	
2276	0	32862	32236	
2277	0	32779	32655	
2278	0	32698	32263	
2279	0	32804	32319	
2280	0	32842	32302	
2281	0	32716	32090	
2282	0	32740	32226	
2283	0	32830	32095	
2284	0	32721	32564	
2285	0	32840	32506	
2286	0	32873	32422	
2287	0	32868	32462	
2288	0	32756	32295	
2289	0	32802	32483	
2290	0	32800	32716	
2291	0	32780	32604	
2292	0	32769	32613	
2293	0	32806	32679	
2294	0	32846	32830	
2295	0	32874	32898	
2296	0	32878	32711	
2297	0	32804	32455	
2298	0	32752	32182	
2299	0	32820	31863	
2300	0	32837	31853	
2301	0	32780	32176	
2302	0	32844	32532	
2303	0	32786	32447	
2304	0	32767	32682	
2305	0	32732	32519	
2306	0	32736	32391	
2307	0	32832	31574	
2308	0	32766	32058	
2309	0	32831	32358	
2310	0	32852	32263	
2311	0	32796	32885	
2312	0	32896	33029	
2313	0	32772	32703	
2314	0	32764	32918	
2315	0	32704	32575	
2316	0	32812	32178	
2317	0	32761	32335	
2318	0	32764	32117	
2319	0	32780	31948	
2320	0	32822	32499	
2321	0	32804	32583	
2322	0	32840	32447	
2323	0	32724	32839	
2324	0	32838	32402	
2325	0	32800	32590	
2326	0	32724	32058	
2327	0	32720	31972	
2328	0	32648	32335	
2329	0	32625	32484	
2330	0	32524	32223	
2331	0	32464	32570	
2332	0	32510	32757	
2333	0	32512	32391	
2334	0	32482	32427	
2335	0	32536	32599	
2336	0	32720	32687	
2337	0	32833	32263	
2338	0	32870	32405	
2339	0	32830	32058	
2340	0	32844	32343	
2341	0	32788	32076	
2342	0	32790	32155	
2343	0	32792	32822	
2344	0	32868	32532	
2345	0	32780	32847	
2346	0	32804	32463	
2347	0	32872	32759	
2348	0	32764	32391	
2349	0	32736	32382	
2350	0	32866	32287	
2351	0	32998	32235	
2352	0	33188	32390	
2353	0	33464	32391	
2354	0	33524	32852	
2355	0	33574	32377	
2356	0	33496	32372	
2357	0	33484	32180	
2358	0	33602	31979	
2359	0	33702	32583	
2360	0	33684	32287	
2361	0	33554	31956	
2362	0	33372	32458	
2363	0	33320	32465	
2364	0	33368	31925	
2365	0	33332	32164	
2366	0	33016	32158	
2367	0	32868	32542	
2368	0	32748	32815	
2369	0	32616	32332	
2370	0	32404	32663	
2371	0	32344	32572	
2372	0	32428	32380	
2373	0	32490	32757	
2374	0	32526	32402	
2375	0	32570	32527	
2376	0	32558	32839	
2377	0	32610	32451	
2378	0	32580	32647	
2379	0	32432	32199	
2380	0	32280	32490	
2381	0	32122	32293	
2382	0	32084	32426	
2383	0	32198	32471	
2384	0	32380	32282	
2385	0	32276	32375	
2386	0	32161	32314	
2387	0	32036	32356	
2388	0	31958	32436	
2389	0	32022	32426	
2390	0	32136	32164	
2391	0	32228	31996	
2392	0	32311	32332	
2393	0	32374	32745	
2394	0	32500	32814	
2395	0	32588	32875	
2396	0	32604	32802	
2397	0	32640	32945	
2398	0	32844	33030	
2399	0	32916	32934	
2400	0	33032	32900	
2401	0	33126	32647	
2402	0	32992	32805	
2403	0	32976	32117	
2404	0	33054	31905	
2405	0	33092	31861	
2406	0	32990	32063	
2407	0	33108	32223	
2408	0	33108	32501	
2409	0	33064	32532	
2410	0	33084	32455	
2411	0	32970	32103	
2412	0	33056	32076	
2413	0	33016	32171	
2414	0	33006	32358	
2415	0	32876	32229	
2416	0	32826	32102	
2417	0	32932	31940	
2418	0	32920	32044	
2419	0	32809	32379	
2420	0	32910	32599	
2421	0	32820	32755	
2422	0	32838	32818	
2423	0	32836	32726	
2424	0	32844	32583	
2425	0	32882	32071	
2426	0	32792	31871	
2427	0	32854	32124	
2428	0	32826	32421	
2429	0	32834	32559	
2430	0	32836	32076	
2431	0	32782	32165	
2432	0	32826	32634	
2433	0	32828	32486	
2434	0	32876	32751	
2435	0	32841	32487	
2436	0	32848	32690	
2437	0	32792	32911	
2438	0	32766	32383	
2439	0	32820	32295	
2440	0	32848	32519	
2441	0	32796	32684	
2442	0	32880	32359	
2443	0	32742	32125	
2444	0	32794	32386	
2445	0	32742	32108	
2446	0	32796	32089	
2447	0	32804	32418	
2448	0	32860	32325	
2449	0	32781	32215	
2450	0	32772	32807	
2451	0	32840	32775	
2452	0	32856	32102	
2453	0	32772	32183	
2454	0	32772	31940	
2455	0	32855	32452	
2456	0	32748	32468	
2457	0	32892	32378	
2458	0	32844	32735	
2459	0	32824	32516	
2460	0	32748	32587	
2461	0	32832	32551	
2462	0	32832	32775	
2463	0	32884	32719	
2464	0	32818	32610	
2465	0	32852	32466	
2466	0	32766	32471	
2467	0	32807	32599	
2468	0	32808	32303	
2469	0	32856	32390	
2470	0	32734	32255	
2471	0	32708	31796	
2472	0	32761	32063	
2473	0	32684	32343	
2474	0	32764	32079	
2475	0	32794	31734	
2476	0	32892	32105	
2477	0	32828	32907	
2478	0	32780	33060	
2479	0	32838	32800	
2480	0	32850	32759	
2481	0	32832	32991	
2482	0	32798	32391	
2483	0	32854	31514	
2484	0	32816	31803	
2485	0	32764	31905	
2486	0	32736	32063	
2487	0	32796	32377	
2488	0	32849	32919	
2489	0	32849	33087	
2490	0	32776	32553	
2491	0	32742	32970	
2492	0	32788	32618	
2493	0	32746	32191	
2494	0	32857	32363	
2495	0	32860	32415	
2496	0	32846	32191	
2497	0	32801	32469	
2498	0	32809	32469	
2499	0	32812	32209	
2500	0	32789	32735	
2501	0	32804	32263	
2502	0	32784	31573	
2503	0	32794	32316	
2504	0	32822	32796	
2505	0	32804	32423	
2506	0	32870	32341	
2507	0	32774	32592	
2508	0	32790	32538	
2509	0	32720	32364	
2510	0	32722	32440	
2511	0	32808	32559	
2512	0	32928	32422	
2513	0	32844	32323	
2514	0	32812	32631	
2515	0	32800	32848	
2516	0	32806	32733	
2517	0	32809	32508	
2518	0	32868	32502	
2519	0	32752	32103	
2520	0	32848	32366	
2521	0	32820	32350	
2522	0	32775	32191	
2523	0	32874	32598	
2524	0	32764	32162	
2525	0	32775	32181	
2526	0	32836	32639	
2527	0	32742	32299	
2528	0	32720	32391	
2529	0	32836	32943	
2530	0	32816	32679	
2531	0	32828	32310	
2532	0	32922	32697	
2533	0	32828	32400	
2534	0	32888	31847	
2535	0	32784	31862	
2536	0	32790	32031	
2537	0	32736	31815	
2538	0	32812	32422	
2539	0	32737	32402	
2540	0	32718	32191	
2541	0	32830	32794	
2542	0	32856	32575	
2543	0	32898	32763	
2544	0	32820	32957	
2545	0	32836	32591	
2546	0	32868	32887	
2547	0	32816	32379	
2548	0	32799	32614	
2549	0	32769	31943	
2550	0	32740	32636	
2551	0	32917	32452	
2552	0	32792	32352	
2553	0	32897	32002	
2554	0	32773	32364	
2555	0	32724	32407	
2556	0	32732	32197	
2557	0	32758	32391	
2558	0	32792	32578	
2559	0	32796	32263	
2560	0	32750	32662	
2561	0	32835	32617	
2562	0	32751	32375	
2563	0	32804	32628	
2564	0	32844	32161	
2565	0	32830	32902	
2566	0	32794	32583	
2567	0	32798	32809	
2568	0	32812	32391	
2569	0	32852	32581	
2570	0	32840	32314	
2571	0	32710	32133	
2572	0	32648	31797	
2573	0	32848	31814	
2574	0	32824	32359	
2575	0	32896	32501	
2576	0	32766	32699	
2577	0	32752	32618	
2578	0	32806	32645	
2579	0	32890	32700	
2580	0	32846	32382	
2581	0	32712	32166	
2582	0	32786	32373	
2583	0	32768	32482	
2584	0	32794	32574	
2585	0	32728	32246	
2586	0	32724	32071	
2587	0	32792	32303	
2588	0	32832	32295	
2589	0	32852	31751	
2590	0	32816	31378	
2591	0	32696	31820	
2592	0	32836	32283	
2593	0	32824	32412	
2594	0	32806	32236	
2595	0	32792	32359	
2596	0	32808	32554	
2597	0	32828	32611	
2598	0	32831	32534	
2599	0	32792	32479	
2600	0	32816	32405	
2601	0	32752	32463	
2602	0	32844	32476	
2603	0	32812	32367	
2604	0	32818	32103	
2605	0	32761	32102	
2606	0	32780	32341	
2607	0	32780	32366	
2608	0	32716	32422	
2609	0	32788	32468	
2610	0	32836	32084	
2611	0	32766	32249	
2612	0	32868	32455	
2613	0	32788	32283	
2614	0	32740	32364	
2615	0	32815	32951	
2616	0	32822	32707	
2617	0	32756	32333	
2618	0	32800	32591	
2619	0	32826	32357	
2620	0	32796	32238	
2621	0	32868	32815	
2622	0	32744	32583	
2623	0	32814	32119	
2624	0	32748	32263	
2625	0	32660	32295	
2626	0	32836	31731	
2627	0	32862	31548	
2628	0	32871	32324	
2629	0	32800	32359	
2630	0	32784	32458	
2631	0	32764	32662	
2632	0	32784	32511	
2633	0	32808	32983	
2634	0	32772	32568	
2635	0	32828	32587	
2636	0	32834	32933	
2637	0	32738	32481	
2638	0	32775	32261	
2639	0	32800	32440	
2640	0	32740	31796	
2641	0	32812	32023	
2642	0	32897	32347	
2643	0	32821	32263	
2644	0	32722	32313	
2645	0	32824	32434	
2646	0	32778	32343	
2647	0	32760	32247	
2648	0	32782	32463	
2649	0	32880	32652	
2650	0	32794	32759	
2651	0	32772	32695	
2652	0	32774	32502	
2653	0	32776	32491	
2654	0	32788	32470	
2655	0	32818	32414	
2656	0	32874	32399	
2657	0	32892	32603	
2658	0	32804	32387	
2659	0	32756	32019	
2660	0	32797	31975	
2661	0	32775	32229	
2662	0	32748	32311	
2663	0	32770	32039	
2664	0	32724	32093	
2665	0	32724	32455	
2666	0	32781	32598	
2667	0	32775	32812	
2668	0	32788	32983	
2669	0	32764	32775	
2670	0	32824	32898	
2671	0	32814	32732	
2672	0	32753	32474	
2673	0	32812	32360	
2674	0	32846	32558	
2675	0	32768	32686	
2676	0	32828	32895	
2677	0	32761	32982	
2678	0	32806	32876	
2679	0	32784	32754	
2680	0	32900	32535	
2681	0	32784	32471	
2682	0	32718	32038	
2683	0	32854	31667	
2684	0	32773	31796	
2685	0	32804	32160	
2686	0	32768	32317	
2687	0	32756	32262	
2688	0	32802	32175	
2689	0	32756	31858	
2690	0	32706	32236	
2691	0	32786	32506	
2692	0	32840	32612	
2693	0	32844	32463	
2694	0	32880	32597	
2695	0	32820	32619	
2696	0	32840	32551	
2697	0	32766	32469	
2698	0	32804	32539	
2699	0	32804	32397	
2700	0	32764	32295	
2701	0	32724	32183	
2702	0	32798	32116	
2703	0	32784	32215	
2704	0	32864	32239	
2705	0	32800	32231	
2706	0	32838	32391	
2707	0	32868	32477	
2708	0	32822	32678	
2709	0	32756	32774	
2710	0	32844	32862	
2711	0	32840	32951	
2712	0	32880	32741	
2713	0	32832	32165	
2714	0	32775	31783	
2715	0	32808	31767	
2716	0	32804	31846	
2717	0	32812	31847	
2718	0	32800	32179	
2719	0	32816	32644	
2720	0	32906	32372	
2721	0	32884	32090	
2722	0	32772	32028	
2723	0	32826	31972	
2724	0	32730	31870	
2725	0	32712	31526	
2726	0	32736	31910	
2727	0	32700	32462	
2728	0	32694	32444	
2729	0	32794	32150	
2730	0	32855	32345	
2731	0	32836	32647	
2732	0	32764	32718	
2733	0	32740	32676	
2734	0	32764	32647	
2735	0	32790	32670	
2736	0	32880	32550	
2737	0	32807	32607	
2738	0	32806	32606	
2739	0	32897	32604	
2740	0	32864	32658	
2741	0	32734	32619	
2742	0	32775	32564	
2743	0	32818	32348	
2744	0	32814	32282	
2745	0	32768	32263	
2746	0	32786	32551	
2747	0	32782	32667	
2748	0	32716	32519	
2749	0	32828	32028	
2750	0	32750	32247	
2751	0	32736	31467	
2752	0	32838	31679	
2753	0	32796	32263	
2754	0	32724	32639	
2755	0	32772	32195	
2756	0	32890	32773	
2757	0	32878	32622	
2758	0	32836	32519	
2759	0	32796	32859	
2760	0	32804	32567	
2761	0	32742	32562	
2762	0	32802	32682	
2763	0	32766	32295	
2764	0	32834	32678	
2765	0	32782	32548	
2766	0	32790	32343	
2767	0	32828	32741	
2768	0	32844	32319	
2769	0	32876	32462	
2770	0	32798	32334	
2771	0	32682	31958	
2772	0	32745	32367	
2773	0	32736	32172	
2774	0	32824	32071	
2775	0	32844	32503	
2776	0	32775	32423	
2777	0	32765	32246	
2778	0	32826	32533	
2779	0	32844	32836	
2780	0	32788	32663	
2781	0	32844	32795	
2782	0	32788	32666	
2783	0	32720	32642	
2784	0	32820	32590	
2785	0	32816	32626	
2786	0	32782	32335	
2787	0	32778	32327	
2788	0	32751	32408	
2789	0	32814	32702	
2790	0	32775	32455	
2791	0	32868	32295	
2792	0	32852	32452	
2793	0	32775	32505	
2794	0	32784	32439	
2795	0	32792	32159	
2796	0	32866	32310	
2797	0	32806	31870	
2798	0	32780	32452	
2799	0	32794	32775	
2800	0	32678	32583	
2801	0	32804	32311	
2802	0	32761	32279	
2803	0	32820	32236	
2804	0	32842	31916	
2805	0	32938	32038	
2806	0	32766	32519	
2807	0	32860	32519	
2808	0	32804	32532	
2809	0	32756	32846	
2810	0	32814	32964	
2811	0	32764	32999	
2812	0	32788	32785	
2813	0	32840	32692	
2814	0	32808	32443	
2815	0	32848	32281	
2816	0	32792	32153	
2817	0	32781	32103	
2818	0	32822	32239	
2819	0	32790	32319	
2820	0	32820	32615	
2821	0	32806	32775	
2822	0	32762	32708	
2823	0	32696	32687	
2824	0	32728	32487	
2825	0	32844	32618	
2826	0	32830	32219	
2827	0	32858	32167	
2828	0	32832	32295	
2829	0	32812	31991	
2830	0	32784	32107	
2831	0	32766	32697	
2832	0	32804	32423	
2833	0	32800	32279	
2834	0	32844	32591	
2835	0	32836	32343	
2836	0	32838	32195	
2837	0	32846	32234	
2838	0	32816	32215	
2839	0	32812	32263	
2840	0	32860	32321	
2841	0	32778	32478	
2842	0	32828	32881	
2843	0	32752	33046	
2844	0	32800	32767	
2845	0	32684	32515	
2846	0	32870	32430	
2847	0	32837	32447	
2848	0	32772	32295	
2849	0	32752	32351	
2850	0	32778	31749	
2851	0	32784	32054	
2852	0	32828	32583	
2853	0	32836	32578	
2854	0	32742	32499	
2855	0	32724	32724	
2856	0	32792	32620	
2857	0	32876	31943	
2858	0	32812	32084	
2859	0	32740	32365	
2860	0	32814	32246	
2861	0	32724	32159	
2862	0	32826	31972	
2863	0	32780	32417	
2864	0	32844	32815	
2865	0	32764	32476	
2866	0	32792	32375	
2867	0	32799	32647	
2868	0	32817	32746	
2869	0	32858	32455	
2870	0	32836	32519	
2871	0	32825	32210	
2872	0	32780	32181	
2873	0	32828	32153	
2874	0	32790	32263	
2875	0	32753	32826	
2876	0	32761	32417	
2877	0	32794	32832	
2878	0	32806	32355	
2879	0	32800	32774	
2880	0	32840	32387	
2881	0	32836	32798	
2882	0	32844	32894	
2883	0	32804	32711	
2884	0	32807	32545	
2885	0	32804	32483	
2886	0	32716	32326	
2887	0	32740	32263	
2888	0	32794	32025	
2889	0	32748	31931	
2890	0	32850	32377	
2891	0	32838	32699	
2892	0	32818	32684	
2893	0	32881	32433	
2894	0	32796	32493	
2895	0	32801	32692	
2896	0	32725	32630	
2897	0	32812	32366	
2898	0	32732	32072	
2899	0	32824	31809	
2900	0	32823	31914	
2901	0	32752	32161	
2902	0	32838	32428	
2903	0	32828	32719	
2904	0	32768	33043	
2905	0	32776	32926	
2906	0	32831	32760	
2907	0	32896	32339	
2908	0	32804	32127	
2909	0	32812	31983	
2910	0	32710	32134	
2911	0	32742	31910	
2912	0	32872	31859	
2913	0	32820	32216	
2914	0	32752	32574	
2915	0	32748	32924	
2916	0	32764	32935	
2917	0	32759	32772	
2918	0	32888	32636	
2919	0	32886	32463	
2920	0	32816	32207	
2921	0	32852	32406	
2922	0	32894	32455	
2923	0	32832	32574	
2924	0	32836	32492	
2925	0	32788	32461	
2926	0	32704	32341	
2927	0	32775	32260	
2928	0	32744	32182	
2929	0	32775	32170	
2930	0	32740	32294	
2931	0	32856	32519	
2932	0	32870	32678	
2933	0	32807	32788	
2934	0	32852	32660	
2935	0	32804	32686	
2936	0	32806	32694	
2937	0	32820	32050	
2938	0	32821	32018	
2939	0	32815	31847	
2940	0	32866	31847	
2941	0	32724	32263	
2942	0	32768	32719	
2943	0	32872	32975	
2944	0	32826	32607	
2945	0	32744	32382	
2946	0	32808	32186	
2947	0	32774	32199	
2948	0	32736	32226	
2949	0	32812	32500	
2950	0	32754	32420	
2951	0	32797	32599	
2952	0	32820	32676	
2953	0	32820	32551	
2954	0	32864	32487	
2955	0	32912	32388	
2956	0	32788	32396	
2957	0	32852	32388	
2958	0	32847	32128	
2959	0	32858	32047	
2960	0	32737	32284	
2961	0	32828	32439	
2962	0	32792	32591	
2963	0	32796	32484	
2964	0	32674	32412	
2965	0	32750	32102	
2966	0	32766	32159	
2967	0	32798	32511	
2968	0	32824	32741	
2969	0	32796	32687	
2970	0	32769	32358	
2971	0	32798	32278	
2972	0	32783	32461	
2973	0	32812	32593	
2974	0	32862	32686	
2975	0	32888	33031	
2976	0	32822	33018	
2977	0	32808	32773	
2978	0	32784	32620	
2979	0	32768	32647	
2980	0	32816	32483	
2981	0	32744	31892	
2982	0	32794	31447	
2983	0	32744	31339	
2984	0	32876	31390	
2985	0	32804	31764	
2986	0	32801	32092	
2987	0	32788	32325	
2988	0	32742	32551	
2989	0	32838	32575	
2990	0	32772	32806	
2991	0	32854	32923	
2992	0	32900	32695	
2993	0	32800	32263	
2994	0	32832	32023	
2995	0	32794	32144	
2996	0	32736	32503	
2997	0	32714	32654	
2998	0	32724	32639	
2999	0	32876	32635	
3000	0	32748	32604	
3001	0	32684	32831	
3002	0	32754	32999	
3003	0	32772	32647	
3004	0	32798	32455	
3005	0	32810	32220	
3006	0	32830	32193	
3007	0	32784	32465	
3008	0	32853	32323	
3009	0	32801	32094	
3010	0	32818	31914	
3011	0	32820	32036	
3012	0	32828	32295	
3013	0	32836	32358	
3014	0	32862	32391	
3015	0	32736	32563	
3016	0	32812	32943	
3017	0	32784	32514	
3018	0	32796	32079	
3019	0	32780	32362	
3020	0	32744	32664	
3021	0	32816	32540	
3022	0	32839	32556	
3023	0	32854	32506	
3024	0	32828	32476	
3025	0	32865	32284	
3026	0	32756	32158	
3027	0	32764	32172	
3028	0	32775	32487	
3029	0	32782	32472	
3030	0	32752	32132	
3031	0	32800	32321	
3032	0	32757	32553	
3033	0	32786	32638	
3034	0	32764	32199	
3035	0	32850	32220	
3036	0	32848	32348	
3037	0	32824	32349	
3038	0	32726	32735	
3039	0	32789	32359	
3040	0	32724	32322	
3041	0	32850	32757	
3042	0	32881	32324	
3043	0	32804	32698	
3044	0	32798	32327	
3045	0	32858	32391	
3046	0	32836	32775	
3047	0	32856	32664	
3048	0	32776	32752	
3049	0	32872	32993	
3050	0	32740	32653	
3051	0	32774	32343	
3052	0	32820	32617	
3053	0	32768	32071	
3054	0	32780	32180	
3055	0	32830	31840	
3056	0	32744	32207	
3057	0	32751	32404	
3058	0	32854	32569	
3059	0	32726	33083	
3060	0	32836	32515	
3061	0	32800	32252	
3062	0	32796	32174	
3063	0	32824	32263	
3064	0	32762	32295	
3065	0	32748	32092	
3066	0	32812	32375	
3067	0	32784	32478	
3068	0	32858	32531	
3069	0	32858	32967	
3070	0	32828	32898	
3071	0	32730	32927	
3072	0	32792	32895	
3073	0	32903	32591	
3074	0	32820	32197	
3075	0	32740	31839	
3076	0	32744	31738	
3077	0	32836	32092	
3078	0	32740	32699	
3079	0	32736	32533	
3080	0	32904	32065	
3081	0	32764	32003	
3082	0	32730	32389	
3083	0	32850	32752	
3084	0	32828	32775	
3085	0	32816	32838	
3086	0	32782	32813	
3087	0	32928	32595	
3088	0	32740	32341	
3089	0	32778	32311	
3090	0	32828	32703	
3091	0	32880	32801	
3092	0	32828	32542	
3093	0	32856	32679	
3094	0	32788	32815	
3095	0	32740	32228	
3096	0	32676	31815	
3097	0	32788	32231	
3098	0	32830	32255	
3099	0	32756	31751	
3100	0	32840	31749	
3101	0	32780	31877	
3102	0	32860	32379	
3103	0	32769	32721	
3104	0	32858	32919	
3105	0	32858	32366	
3106	0	32788	32322	
3107	0	32798	32751	
3108	0	32852	32743	
3109	0	32788	32413	
3110	0	32733	32413	
3111	0	32790	32479	
3112	0	32786	32575	
3113	0	32824	32711	
3114	0	32844	32519	
3115	0	32775	32285	
3116	0	32769	32191	
3117	0	32790	32359	
3118	0	32780	32435	
3119	0	32796	32318	
3120	0	32756	32279	
3121	0	32812	32319	
3122	0	32798	32310	
3123	0	32862	32199	
3124	0	32830	32046	
3125	0	32796	32231	
3126	0	32744	32126	
3127	0	32876	32224	
3128	0	32800	32215	
3129	0	32796	32333	
3130	0	32784	32385	
3131	0	32832	32182	
3132	0	32764	32208	
3133	0	32760	32162	
3134	0	32774	32186	
3135	0	32836	32365	
3136	0	32804	32148	
3137	0	32678	32325	
3138	0	32794	32687	
3139	0	32896	32683	
3140	0	32844	32666	
3141	0	32870	32707	
3142	0	32753	32507	
3143	0	32783	32492	
3144	0	32724	32462	
3145	0	32692	32602	
3146	0	32856	32607	
3147	0	32872	32480	
3148	0	32746	32175	
3149	0	32830	32039	
3150	0	32848	32162	
3151	0	32781	32135	
3152	0	32806	32060	
3153	0	32772	32220	
3154	0	32824	32660	
3155	0	32846	32684	
3156	0	32802	32405	
3157	0	32792	32327	
3158	0	32808	32443	
3159	0	32782	32812	
3160	0	32834	32996	
3161	0	32764	33068	
3162	0	32816	32871	
3163	0	32772	32610	
3164	0	32808	32578	
3165	0	32744	32601	
3166	0	32726	32459	
3167	0	32815	32920	
3168	0	32816	32635	
3169	0	32821	32771	
3170	0	32712	32391	
3171	0	32708	32604	
3172	0	32744	32423	
3173	0	32807	32895	
3174	0	32774	32486	
3175	0	32762	32511	
3176	0	32746	32203	
3177	0	32736	32322	
3178	0	32828	32133	
3179	0	32840	31777	
3180	0	32852	31663	
3181	0	32708	31719	
3182	0	32788	31991	
3183	0	32766	32610	
3184	0	32884	32723	
3185	0	32912	32690	
3186	0	32949	32774	
3187	0	32864	32090	
3188	0	32836	32573	
3189	0	32772	32742	
3190	0	32708	32502	
3191	0	32548	32918	
3192	0	32636	32294	
3193	0	32652	32654	
3194	0	32696	32391	
3195	0	32706	32095	
3196	0	32682	32294	
3197	0	32777	31889	
3198	0	32807	32549	
3199	0	32798	32205	
3200	0	32876	32100	
3201	0	32976	32479	
3202	0	32944	32726	
3203	0	33006	32695	
3204	0	32932	32519	
3205	0	32906	32406	
3206	0	32830	32223	
3207	0	32944	32439	
3208	0	32973	32411	
3209	0	32966	32457	
3210	0	32964	32476	
3211	0	33024	32679	
3212	0	32932	32921	
3213	0	32860	32308	
3214	0	32932	31823	
3215	0	32796	32227	
3216	0	32728	32471	
3217	0	32802	32330	
3218	0	32817	32087	
3219	0	32806	31606	
3220	0	32908	31173	
3221	0	32808	31463	
3222	0	32829	32234	
3223	0	32818	32369	
3224	0	32753	32391	
3225	0	32732	32815	
3226	0	32672	33020	
3227	0	32694	33060	
3228	0	32716	33028	
3229	0	32780	32933	
3230	0	32799	32842	
3231	0	32812	32775	
3232	0	32764	32867	
3233	0	32734	32871	
3234	0	32784	32775	
3235	0	32830	32751	
3236	0	32868	32690	
3237	0	32765	32540	
3238	0	32906	32623	
3239	0	32868	32519	
3240	0	32806	32247	
3241	0	32826	32364	
3242	0	32746	32454	
3243	0	32812	32595	
3244	0	32685	32367	
3245	0	32662	32365	
3246	0	32730	32459	
3247	0	32664	32789	
3248	0	32648	32647	
3249	0	32700	32283	
3250	0	32764	31873	
3251	0	32824	31703	
3252	0	32774	31678	
3253	0	32775	32135	
3254	0	32884	32490	
3255	0	32848	32442	
3256	0	32872	32767	
3257	0	32802	32775	
3258	0	32794	32868	
3259	0	32880	32740	
3260	0	32864	32303	
3261	0	32842	32128	
3262	0	32784	32309	
3263	0	32864	32516	
3264	0	32848	32884	
3265	0	32852	32453	
3266	0	32804	32415	
3267	0	32882	32639	
3268	0	32852	32199	
3269	0	32820	31898	
3270	0	32844	32284	
3271	0	32828	32583	
3272	0	32780	32620	
3273	0	32770	33159	
3274	0	32748	33212	
3275	0	32736	32750	
3276	0	32769	32902	
3277	0	32686	32132	
3278	0	32772	31997	
3279	0	32700	31662	
3280	0	32800	31087	
3281	0	32796	31348	
3282	0	32761	32087	
3283	0	32732	32143	
3284	0	32858	32327	
3285	0	32855	32362	
3286	0	32812	32559	
3287	0	32756	32932	
3288	0	32800	33029	
3289	0	32764	32870	
3290	0	32756	32660	
3291	0	32756	32411	
3292	0	32820	32282	
3293	0	32778	32330	
3294	0	32760	32123	
3295	0	32832	32180	
3296	0	32846	32174	
3297	0	32834	32391	
3298	0	32788	32636	
3299	0	32844	32740	
3300	0	32804	32658	
3301	0	32748	32412	
3302	0	32736	32398	
3303	0	32760	32775	
3304	0	32860	32543	
3305	0	32892	32693	
3306	0	32864	31815	
3307	0	32820	31546	
3308	0	32829	32054	
3309	0	32770	32182	
3310	0	32756	32567	
3311	0	32772	32902	
3312	0	32808	32812	
3313	0	32752	32726	
3314	0	32844	32719	
3315	0	32784	32740	
3316	0	32848	32626	
3317	0	32832	32318	
3318	0	32744	32214	
3319	0	32764	31807	
3320	0	32692	32079	
3321	0	32710	32286	
3322	0	32740	32351	
3323	0	32650	32300	
3324	0	32620	32298	
3325	0	32620	32403	
3326	0	32440	32351	
3327	0	32454	32287	
3328	0	32545	32484	
3329	0	32565	32616	
3330	0	32528	32563	
3331	0	32706	32494	
3332	0	32828	32467	
3333	0	32816	32202	
3334	0	32720	32283	
3335	0	32826	32391	
3336	0	32794	32599	
3337	0	32848	32338	
3338	0	32904	32543	
3339	0	32902	32817	
3340	0	32940	32784	
3341	0	32774	32691	
3342	0	32820	32695	
3343	0	32726	32738	
3344	0	32844	32787	
3345	0	33044	32627	
3346	0	33252	32312	
3347	0	33330	32327	
3348	0	33400	31950	
3349	0	33496	31805	
3350	0	33432	32085	
3351	0	33502	32263	
3352	0	33656	31910	
3353	0	33836	32558	
3354	0	33820	32774	
3355	0	33764	32219	
3356	0	33678	32487	
3357	0	33692	32707	
3358	0	33408	32310	
3359	0	33180	32231	
3360	0	33018	32234	
3361	0	32844	32551	
3362	0	32716	32763	
3363	0	32452	32775	
3364	0	32372	32791	
3365	0	32416	32636	
3366	0	32456	32765	
3367	0	32410	32697	
3368	0	32510	32519	
3369	0	32532	32100	
3370	0	32440	31586	
3371	0	32433	31623	
3372	0	32516	31710	
3373	0	32380	32057	
3374	0	32300	32215	
3375	0	32124	32631	
3376	0	32088	32607	
3377	0	32196	32622	
3378	0	32080	32463	
3379	0	32108	32335	
3380	0	31956	32411	
3381	0	31872	32719	
3382	0	31940	32967	
3383	0	32012	32853	
3384	0	32146	32538	
3385	0	32296	32423	
3386	0	32308	32359	
3387	0	32476	32279	
3388	0	32524	32355	
3389	0	32612	32383	
3390	0	32676	32471	
3391	0	32768	32669	
3392	0	32886	32700	
3393	0	32922	32743	
3394	0	33048	32694	
3395	0	33020	32519	
3396	0	33134	32413	
3397	0	33056	32188	
3398	0	33096	32075	
3399	0	33044	32087	
3400	0	33088	32076	
3401	0	33052	31850	
3402	0	32984	31454	
3403	0	32964	31637	
3404	0	33008	32142	
3405	0	33016	32323	
3406	0	32976	32426	
3407	0	33008	32567	
3408	0	33016	32759	
3409	0	32962	32823	
3410	0	32940	32743	
3411	0	32962	32648	
3412	0	32902	32639	
3413	0	32918	32647	
3414	0	32956	32559	
3415	0	32868	32502	
3416	0	32778	32519	
3417	0	32770	32391	
3418	0	32840	32356	
3419	0	32844	32399	
3420	0	32836	32387	
3421	0	32832	32407	
3422	0	32808	32453	
3423	0	32824	32631	
3424	0	32820	32722	
3425	0	32954	32698	
3426	0	32890	32084	
3427	0	32782	32361	
3428	0	32788	32167	
3429	0	32880	32167	
3430	0	32796	31828	
3431	0	32764	31188	
3432	0	32800	31786	
3433	0	32752	31851	
3434	0	32718	32007	
3435	0	32724	32516	
3436	0	32785	32802	
3437	0	32822	32894	
3438	0	32892	33031	
3439	0	32836	32924	
3440	0	32849	32839	
3441	0	32842	32719	
3442	0	32912	32582	
3443	0	32852	32644	
3444	0	32856	32158	
3445	0	32852	31903	
3446	0	32823	32176	
3447	0	32808	31975	
3448	0	32792	32478	
3449	0	32814	31871	
3450	0	32880	32391	
3451	0	32788	32431	
3452	0	32788	32641	
3453	0	32756	32799	
3454	0	32740	32262	
3455	0	32726	32719	
3456	0	32772	32471	
3457	0	32868	32549	
3458	0	32816	32615	
3459	0	32784	32263	
3460	0	32786	32742	
3461	0	32788	32359	
3462	0	32820	32469	
3463	0	32847	32366	
3464	0	32884	32231	
3465	0	32730	32403	
3466	0	32726	32631	
3467	0	32742	32452	
3468	0	32802	32479	
3469	0	32724	32686	
3470	0	32764	32679	
3471	0	32820	32574	
3472	0	32806	32582	
3473	0	32726	32413	
3474	0	32882	32143	
3475	0	32814	32196	
3476	0	32870	32135	
3477	0	32924	32167	
3478	0	32906	32487	
3479	0	32788	32711	
3480	0	32832	32838	
3481	0	32832	32740	
3482	0	32775	32629	
3483	0	32780	32727	
3484	0	32792	32423	
3485	0	32732	32054	
3486	0	32744	31870	
3487	0	32830	32163	
3488	0	32757	32098	
3489	0	32752	31940	
3490	0	32866	31871	
3491	0	32804	32087	
3492	0	32836	32175	
3493	0	32740	32263	
3494	0	32768	32190	
3495	0	32752	32251	
3496	0	32836	32471	
3497	0	32840	32559	
3498	0	32804	32911	
3499	0	32881	32950	
3500	0	32828	32946	
3501	0	32806	33007	
3502	0	32756	32940	
3503	0	32780	32897	
3504	0	32740	32566	
3505	0	32736	32423	
3506	0	32808	32244	
3507	0	32847	31849	
3508	0	32820	31846	
3509	0	32872	31751	
3510	0	32852	31855	
3511	0	32764	32121	
3512	0	32812	32277	
3513	0	32884	32369	
3514	0	32806	32313	
3515	0	32808	32924	
3516	0	32804	32772	
3517	0	32752	32555	
3518	0	32684	32962	
3519	0	32756	32893	
3520	0	32812	32555	
3521	0	32800	32677	
3522	0	32884	31911	
3523	0	32818	31827	
3524	0	32769	31543	
3525	0	32830	31607	
3526	0	32832	31900	
3527	0	32736	32409	
3528	0	32760	32671	
3529	0	32797	32990	
3530	0	32834	32983	
3531	0	32796	32982	
3532	0	32801	32811	
3533	0	32732	32391	
3534	0	32884	32175	
3535	0	32881	32275	
3536	0	32800	32574	
3537	0	32744	32564	
3538	0	32738	32545	
3539	0	32804	32495	
3540	0	32826	32415	
3541	0	32788	32327	
3542	0	32816	32219	
3543	0	32759	32063	
3544	0	32768	32090	
3545	0	32764	31963	
3546	0	32832	32025	
3547	0	32860	32135	
3548	0	32856	32116	
3549	0	32804	32199	
3550	0	32782	32319	
3551	0	32778	32339	
3552	0	32758	32285	
3553	0	32840	32263	
3554	0	32886	32275	
3555	0	32772	32391	
3556	0	32812	32589	
3557	0	32676	32604	
3558	0	32774	32711	
3559	0	32812	32854	
3560	0	32836	32726	
3561	0	32864	32517	
3562	0	32834	32403	
3563	0	32842	32450	
3564	0	32806	32668	
3565	0	32754	32559	
3566	0	32790	32468	
3567	0	32775	32435	
3568	0	32794	32549	
3569	0	32764	32572	
3570	0	32782	32391	
3571	0	32816	32354	
3572	0	32788	32295	
3573	0	32756	32422	
3574	0	32836	32519	
3575	0	32802	32422	
3576	0	32792	32064	
3577	0	32914	32183	
3578	0	32792	32119	
3579	0	32736	32310	
3580	0	32814	32219	
3581	0	32758	31999	
3582	0	32854	31748	
3583	0	32754	31927	
3584	0	32876	32039	
3585	0	32840	32623	
3586	0	32910	33011	
3587	0	32880	32665	
3588	0	32806	32635	
3589	0	32704	32751	
3590	0	32822	32903	
3591	0	32732	32904	
3592	0	32804	32863	
3593	0	32746	32671	
3594	0	32807	32892	
3595	0	32812	32771	
3596	0	32836	32775	
3597	0	32866	32871	
3598	0	32868	32879	
3599	0	32824	32843	
3600	0	32806	32693	
3601	0	32828	32732	
3602	0	32882	32798	
3603	0	32834	32673	
3604	0	32808	32134	
3605	0	32788	31751	
3606	0	32754	31723	
3607	0	32762	32107	
3608	0	32744	32487	
3609	0	32773	32214	
3610	0	32772	32414	
3611	0	32880	32948	
3612	0	32780	33020	
3613	0	32767	33007	
3614	0	32696	32516	
3615	0	32888	32516	
3616	0	32900	32798	
3617	0	32810	32775	
3618	0	32736	32774	
3619	0	32814	32596	
3620	0	32762	32511	
3621	0	32750	32316	
3622	0	32847	32292	
3623	0	32830	32228	
3624	0	32836	32412	
3625	0	32782	32385	
3626	0	32764	32495	
3627	0	32811	32767	
3628	0	32780	32742	
3629	0	32774	32548	
3630	0	32808	32391	
3631	0	32824	32228	
3632	0	32824	32263	
3633	0	32740	32039	
3634	0	32736	31872	
3635	0	32910	31839	
3636	0	32767	32070	
3637	0	32882	32185	
3638	0	32948	31866	
3639	0	32808	31652	
3640	0	32748	31732	
3641	0	32784	32066	
3642	0	32718	32294	
3643	0	32750	32286	
3644	0	32820	32861	
3645	0	32786	32492	
3646	0	32806	32725	
3647	0	32820	32647	
3648	0	32761	32442	
3649	0	32734	32400	
3650	0	32744	32379	
3651	0	32800	32695	
3652	0	32855	32550	
3653	0	32808	32341	
3654	0	32820	32703	
3655	0	32796	32311	
3656	0	32820	32564	
3657	0	32756	32772	
3658	0	32858	32425	
3659	0	32801	32104	
3660	0	32766	32282	
3661	0	32782	32177	
3662	0	32848	32124	
3663	0	32854	32675	
3664	0	32776	32711	
3665	0	32752	32363	
3666	0	32784	32839	
3667	0	32842	32438	
3668	0	32750	32647	
3669	0	32796	32335	
3670	0	32818	31924	
3671	0	32804	32247	
3672	0	32748	31719	
3673	0	32805	32154	
3674	0	32774	32103	
3675	0	32750	32455	
3676	0	32724	32693	
3677	0	32700	32215	
3678	0	32834	32823	
3679	0	32813	31903	
3680	0	32827	32495	
3681	0	32761	32334	
3682	0	32764	32805	
3683	0	32830	32385	
3684	0	32822	32748	
3685	0	32706	32347	
3686	0	32878	32821	
3687	0	32940	32199	
3688	0	32812	32352	
3689	0	32742	31859	
3690	0	32764	32551	
3691	0	32892	33061	
3692	0	32869	32508	
3693	0	32768	32580	
3694	0	32778	32655	
3695	0	32798	32730	
3696	0	32792	32679	
3697	0	32820	32228	
3698	0	32780	32420	
3699	0	32742	32474	
3700	0	32784	32679	
3701	0	32804	32579	
3702	0	32706	32573	
3703	0	32732	32458	
3704	0	32750	32252	
3705	0	32840	32170	
3706	0	32832	32199	
3707	0	32824	32420	
3708	0	32836	32343	
3709	0	32828	32702	
3710	0	32836	33015	
3711	0	32774	32621	
3712	0	32825	32572	
3713	0	32732	32167	
3714	0	32788	32109	
3715	0	32821	32628	
3716	0	32769	32195	
3717	0	32796	31858	
3718	0	32810	32572	
3719	0	32748	32490	
3720	0	32896	32727	
3721	0	32810	32866	
3722	0	32778	32372	
3723	0	32738	32171	
3724	0	32764	32216	
3725	0	32846	32254	
3726	0	32768	32063	
3727	0	32810	31980	
3728	0	32754	32326	
3729	0	32800	32415	
3730	0	32940	32207	
3731	0	32794	32345	
3732	0	32750	32391	
3733	0	32784	32543	
3734	0	32788	32383	
3735	0	32800	32449	
3736	0	32830	32692	
3737	0	32820	32670	
3738	0	32806	32583	
3739	0	32820	32638	
3740	0	32852	32558	
3741	0	32760	32668	
3742	0	32804	32876	
3743	0	32736	32967	
3744	0	32796	32831	
3745	0	32782	32598	
3746	0	32876	32449	
3747	0	32805	32255	
3748	0	32837	31782	
3749	0	32824	31480	
3750	0	32840	31556	
3751	0	32744	31731	
3752	0	32798	32084	
3753	0	32804	32594	
3754	0	32764	32726	
3755	0	32758	32554	
3756	0	32820	32555	
3757	0	32788	32423	
3758	0	32856	32232	
3759	0	32794	32263	
3760	0	32740	32419	
3761	0	32738	32398	
3762	0	32896	32519	
3763	0	32806	32508	
3764	0	32834	32342	
3765	0	32726	32135	
3766	0	32791	32327	
3767	0	32832	32631	
3768	0	32784	32471	
3769	0	32780	32486	
3770	0	32728	32458	
3771	0	32775	32404	
3772	0	32812	32545	
3773	0	32896	32551	
3774	0	32846	32388	
3775	0	32808	32615	
3776	0	32792	32775	
3777	0	32746	32751	
3778	0	32820	32971	
3779	0	32788	32711	
3780	0	32754	32118	
3781	0	32736	31658	
3782	0	32926	31741	
3783	0	32888	31743	
3784	0	32756	31671	
3785	0	32725	31815	
3786	0	32748	32028	
3787	0	32692	32428	
3788	0	32740	32342	
3789	0	32806	32135	
3790	0	32742	32171	
3791	0	32832	32481	
3792	0	32904	32882	
3793	0	32876	32901	
3794	0	32792	32926	
3795	0	32828	32990	
3796	0	32824	32750	
3797	0	32756	32463	
3798	0	32740	32107	
3799	0	32716	32711	
3800	0	32844	33148	
3801	0	32782	33020	
3802	0	32814	32801	
3803	0	32822	32494	
3804	0	32836	32070	
3805	0	32822	31906	
3806	0	32804	31716	
3807	0	32732	31847	
3808	0	32766	32219	
3809	0	32752	32154	
3810	0	32826	32302	
3811	0	32808	32391	
3812	0	32724	32662	
3813	0	32828	32519	
3814	0	32758	32683	
3815	0	32834	32586	
3816	0	32842	32711	
3817	0	32840	32700	
3818	0	32766	32598	
3819	0	32780	32335	
3820	0	32768	32150	
3821	0	32852	32287	
3822	0	32812	32495	
3823	0	32764	32553	
3824	0	32844	32535	
3825	0	32800	32699	
3826	0	32832	32408	
3827	0	32764	32164	
3828	0	32734	32186	
3829	0	32740	32435	
3830	0	32756	32692	
3831	0	32751	32461	
3832	0	32753	32407	
3833	0	32816	32539	
3834	0	32893	32551	
3835	0	32832	32583	
3836	0	32796	32532	
3837	0	32896	32406	
3838	0	32830	32343	
3839	0	32756	32350	
3840	0	32724	32359	
3841	0	32794	32231	
3842	0	32750	32263	
3843	0	32700	32466	
3844	0	32744	32340	
3845	0	32756	32507	
3846	0	32841	32673	
3847	0	32868	31986	
3848	0	32828	32347	
3849	0	32868	32623	
3850	0	32836	32391	
3851	0	32890	32603	
3852	0	32828	32772	
3853	0	32826	32564	
3854	0	32852	32263	
3855	0	32852	32253	
3856	0	32766	32315	
3857	0	32777	32447	
3858	0	32834	32293	
3859	0	32714	32334	
3860	0	32736	32487	
3861	0	32852	32623	
3862	0	32744	32583	
3863	0	32789	32443	
3864	0	32760	32133	
3865	0	32776	32053	
3866	0	32750	31927	
3867	0	32908	32054	
3868	0	32952	32382	
3869	0	32874	32830	
3870	0	32788	32967	
3871	0	32753	32775	
3872	0	32820	32547	
3873	0	32764	32583	
3874	0	32916	32497	
3875	0	32816	32311	
3876	0	32832	32158	
3877	0	32778	32247	
3878	0	32808	32439	
3879	0	32794	32292	
3880	0	32684	32263	
3881	0	32740	32508	
3882	0	32760	32234	
3883	0	32784	32476	
3884	0	32758	32335	
3885	0	32785	32239	
3886	0	32844	32668	
3887	0	32852	32511	
3888	0	32868	32346	
3889	0	32806	32373	
3890	0	32832	32455	
3891	0	32740	32644	
3892	0	32762	32247	
3893	0	32788	31978	
3894	0	32768	32263	
3895	0	32862	32638	
3896	0	32880	32847	
3897	0	32868	32828	
3898	0	32826	32716	
3899	0	32756	32391	
3900	0	32862	32219	
3901	0	32862	32159	
3902	0	32726	32255	
3903	0	32604	32254	
3904	0	32816	31983	
3905	0	32864	32125	
3906	0	32796	32253	
3907	0	32767	32580	
3908	0	32810	32687	
3909	0	32784	32794	
3910	0	32857	32701	
3911	0	32780	32705	
3912	0	32824	32775	
3913	0	32828	32558	
3914	0	32814	32483	
3915	0	32828	32391	
3916	0	32778	32135	
3917	0	32750	31956	
3918	0	32768	31897	
3919	0	32754	32167	
3920	0	32744	31716	
3921	0	32834	31791	
3922	0	32776	32235	
3923	0	32802	32826	
3924	0	32788	32727	
3925	0	32828	32679	
3926	0	32820	32988	
3927	0	32802	33075	
3928	0	32801	32622	
3929	0	32820	32178	
3930	0	32800	32222	
3931	0	32880	32580	
3932	0	32844	32199	
3933	0	32806	31698	
3934	0	32796	31815	
3935	0	32812	32318	
3936	0	32794	32547	
3937	0	32730	32367	
3938	0	32912	32346	
3939	0	32816	32162	
3940	0	32833	32087	
3941	0	32804	32335	
3942	0	32864	32647	
3943	0	32774	32684	
3944	0	32804	32669	
3945	0	32724	32689	
3946	0	32754	32710	
3947	0	32768	32647	
3948	0	32866	32423	
3949	0	32824	32327	
3950	0	32860	32095	
3951	0	32789	32527	
3952	0	32728	32115	
3953	0	32693	32424	
3954	0	32807	32295	
3955	0	32776	32214	
3956	0	32789	32350	
3957	0	32744	32420	
3958	0	32799	32332	
3959	0	32812	32383	
3960	0	32871	32250	
3961	0	32704	32510	
3962	0	32750	32535	
3963	0	32786	32498	
3964	0	32806	32658	
3965	0	32772	32503	
3966	0	32884	32602	
3967	0	32868	32223	
3968	0	32782	32132	
3969	0	32746	32455	
3970	0	32738	32462	
3971	0	32772	32398	
3972	0	32820	32799	
3973	0	32758	32865	
3974	0	32726	32404	
3975	0	32762	32452	
3976	0	32778	31778	
3977	0	32783	31199	
3978	0	32790	32055	
3979	0	32764	32584	
3980	0	32828	32383	
3981	0	32884	32730	
3982	0	32906	32334	
3983	0	32886	32388	
3984	0	32876	32715	
3985	0	32720	31970	
3986	0	32604	32020	
3987	0	32660	32660	
3988	0	32608	31887	
3989	0	32716	31822	
3990	0	32704	31084	
3991	0	32828	30954	
3992	0	32828	30306	
3993	0	32812	30358	
3994	0	32612	29870	
3995	0	32576	27690	
3996	0	32952	27819	
3997	0	33108	27755	
3998	0	32972	27014	
3999	0	32972	25200	
4000	0	32818	21324	
4001	0	32764	14646	
4002	0	32596	15645	
4003	0	32432	17801	
4004	0	32312	19649	
4005	0	25450	65524	
4006	0	24020	65535	
4007	0	30832	65535	
4008	0	34378	60736	
4009	0	36004	56844	
4010	0	36416	53780	
4011	0	36252	50196	
4012	0	35872	48511	
4013	0	35284	46420	
4014	0	34790	44028	
4015	0	34176	43132	
4016	0	33828	41382	
4017	0	33524	40194	
4018	0	33176	39242	
4019	0	32890	38100	
4020	0	32760	37648	
4021	0	32584	25706	
4022	0	32468	21058	
4023	0	32488	19252	
4024	0	32500	19484	
4025	0	32380	20981	
4026	0	32444	22852	
4027	0	32452	24468	
4028	0	32460	25885	
4029	0	32564	26653	
4030	0	32596	26843	
4031	0	32532	26970	
4032	0	32468	27832	
4033	0	32488	28551	
4034	0	32416	29078	
4035	0	32542	29657	
4036	0	32590	30295	
4037	0	32772	29919	
4038	0	32640	29828	
4039	0	32656	29828	
4040	0	32548	29826	
4041	0	32636	29798	
4042	0	32640	29969	
4043	0	32736	30471	
4044	0	32762	31422	
4045	0	32900	33927	
4046	0	32880	37170	
4047	0	32853	37595	
4048	0	32860	36470	
4049	0	32708	34535	
4050	0	32634	32047	
4051	0	32783	29212	
4052	0	32656	24850	
4053	0	32657	22086	
4054	0	32585	21117	
4055	0	32620	22743	
4056	0	32686	29428	
4057	0	32712	35913	
4058	0	32767	37998	
4059	0	32804	38407	
4060	0	32905	36414	
4061	0	32856	34302	
4062	0	32780	29201	
4063	0	32684	23584	
4064	0	32592	19506	
4065	0	32652	17684	
4066	0	32751	20375	
4067	0	32834	26511	
4068	0	32740	31126	
4069	0	32892	34405	
4070	0	32904	35697	
4071	0	32938	36116	
4072	0	32842	36044	
4073	0	32784	36312	
4074	0	32756	35847	
4075	0	32820	36020	
4076	0	32969	35685	
4077	0	32964	34863	
4078	0	32748	34388	
4079	0	32676	33942	
4080	0	32791	32703	
4081	0	32884	32263	
4082	0	32852	31592	
4083	0	32794	30926	
4084	0	32980	31023	
4085	0	32952	30372	
4086	0	32778	29766	
4087	0	32836	29388	
4088	0	32860	28988	
4089	0	32642	28167	
4090	0	32714	26113	
4091	0	32748	21352	
4092	0	32814	14121	
4093	0	32920	14284	
4094	0	32892	16644	
4095	0	32872	18588	
4096	0	32900	20455	
4097	0	32788	22050	
4098	0	32832	23291	
4099	0	32812	24615	
4100	0	32741	25762	
4101	0	32696	26601	
4102	0	32766	27452	
4103	0	32772	28109	
4104	0	32740	28725	
4105	0	32734	34761	
4106	0	32728	36130	
4107	0	32832	37290	
4108	0	32884	37980	
4109	0	32868	37740	
4110	0	32842	37383	
4111	0	32700	36956	
4112	0	32744	37132	
4113	0	32740	36804	
4114	0	32726	37383	
4115	0	32657	37383	
4116	0	32708	37680	
4117	0	32624	39172	
4118	0	32648	39490	
4119	0	32744	39382	
4120	0	32796	39116	
4121	0	32792	38828	
4122	0	32836	37767	
4123	0	32766	36186	
4124	0	32918	35622	
4125	0	32896	35544	
4126	0	32890	35213	
4127	0	32721	35188	
4128	0	32718	35029	
4129	0	32756	34548	
4130	0	32782	34727	
4131	0	32744	34124	
4132	0	32740	33855	
4133	0	32860	34068	
4134	0	32864	33831	
4135	0	32764	33791	
4136	0	32836	33946	
4137	0	32814	33863	
4138	0	32884	33623	
4139	0	32831	33543	
4140	0	32834	33583	
4141	0	32774	33707	
4142	0	32802	33663	
4143	0	32905	33407	
4144	0	32836	33233	
4145	0	32848	33204	
4146	0	32800	33341	
4147	0	32792	33370	
4148	0	32822	33724	
4149	0	32836	33319	
4150	0	32746	33155	
4151	0	32792	33447	
4152	0	32740	33558	
4153	0	32756	33207	
4154	0	32714	32983	
4155	0	32624	33244	
4156	0	32668	32982	
4157	0	32708	32868	
4158	0	32760	33172	
4159	0	32944	33323	
4160	0	32956	32982	
4161	0	32892	32890	
4162	0	32874	32934	
4163	0	32836	32948	
4164	0	32816	33071	
4165	0	32832	33259	
4166	0	32788	33237	
4167	0	32772	33095	
4168	0	32773	32902	
4169	0	32852	32838	
4170	0	32906	32727	
4171	0	32834	32577	
4172	0	32844	32542	
4173	0	32807	32621	
4174	0	32788	32685	
4175	0	32734	32835	
4176	0	32782	33057	
4177	0	32866	32926	
4178	0	32772	32604	
4179	0	32774	32565	
4180	0	32722	32594	
4181	0	32760	32647	
4182	0	32636	32623	
4183	0	32704	32756	
4184	0	32672	32839	
4185	0	32800	32967	
4186	0	32716	32879	
4187	0	32822	32750	
4188	0	32888	32551	
4189	0	32808	32709	
4190	0	32856	32741	
4191	0	32832	32590	
4192	0	32932	32438	
4193	0	32822	32519	
4194	0	32932	32599	
4195	0	32802	32698	
4196	0	32804	32871	
4197	0	32796	32647	
4198	0	32736	32353	
4199	0	32562	32342	
4200	0	32568	32415	
4201	0	32600	32564	
4202	0	32632	32751	
4203	0	32708	32750	
4204	0	32693	32516	
4205	0	32868	32607	
4206	0	32792	32492	
4207	0	32732	32391	
4208	0	32896	32383	
4209	0	32918	32679	
4210	0	32952	32740	
4211	0	32996	32514	
4212	0	32964	32519	
4213	0	32972	32407	
4214	0	32996	32643	
4215	0	32996	32730	
4216	0	32988	32815	
4217	0	33009	32767	
4218	0	32878	32631	
4219	0	32864	32406	
4220	0	32748	32299	
4221	0	32752	32252	
4222	0	32856	32019	
4223	0	32904	31892	
4224	0	32855	31892	
4225	0	32824	32222	
4226	0	32814	32446	
4227	0	32964	32851	
4228	0	32924	32740	
4229	0	32928	32573	
4230	0	32740	32762	
4231	0	32833	32775	
4232	0	32730	32687	
4233	0	32560	32543	
4234	0	32588	32375	
4235	0	32593	32414	
4236	0	32660	32390	
4237	0	32676	32219	
4238	0	32712	32191	
4239	0	32672	31839	
4240	0	32702	32148	
4241	0	32608	32719	
4242	0	32530	32755	
4243	0	32620	32508	
4244	0	32636	32414	
4245	0	32752	32359	
4246	0	32865	32742	
4247	0	33002	32692	
4248	0	33210	32775	
4249	0	33352	33134	
4250	0	33224	33368	
4251	0	33236	33060	
4252	0	33080	32767	
4253	0	32834	32583	
4254	0	32646	32402	
4255	0	32300	31588	
4256	0	32194	30420	
4257	0	32330	30471	
4258	0	32472	31439	
4259	0	32742	32639	
4260	0	33088	32846	
4261	0	33218	33055	
4262	0	33220	33656	
4263	0	33082	34078	
4264	0	32980	33467	
4265	0	32908	32956	
4266	0	32816	32775	
4267	0	32796	32807	
4268	0	32816	32806	
4269	0	32704	32076	
4270	0	32588	31030	
4271	0	32740	31195	
4272	0	32697	31593	
4273	0	32800	31776	
4274	0	32886	31934	
4275	0	32852	32575	
4276	0	32652	32903	
4277	0	32752	32739	
4278	0	32726	32423	
4279	0	32776	32431	
4280	0	32780	32572	
4281	0	32709	32359	
4282	0	32704	32499	
4283	0	32750	32559	
4284	0	32664	32615	
4285	0	32764	32559	
4286	0	32708	32503	
4287	0	32839	32750	
4288	0	32729	32828	
4289	0	32668	32166	
4290	0	32721	32075	
4291	0	32844	32405	
4292	0	32844	32346	
4293	0	32832	32447	
4294	0	32860	32544	
4295	0	32762	32599	
4296	0	32852	32767	
4297	0	32764	32838	
4298	0	32824	32430	
4299	0	32822	32361	
4300	0	32828	32519	
4301	0	32727	32590	
4302	0	32762	32263	
4303	0	32804	32388	
4304	0	32782	32263	
4305	0	32834	32091	
4306	0	32796	32367	
4307	0	32804	32828	
4308	0	32786	32534	
4309	0	32764	32258	
4310	0	32826	32629	
4311	0	32794	32287	
4312	0	32768	32298	
4313	0	32836	32396	
4314	0	32805	32564	
4315	0	32830	32590	
4316	0	32762	32099	
4317	0	32828	32399	
4318	0	32832	32535	
4319	0	32821	32641	
4320	0	32830	32308	
4321	0	32840	32228	
4322	0	32828	32426	
4323	0	32756	32799	
4324	0	32732	32775	
4325	0	32820	32706	
4326	0	32830	32483	
4327	0	32848	32191	
4328	0	32772	32581	
4329	0	32686	32313	
4330	0	32628	32378	
4331	0	32624	32063	
4332	0	32640	32454	
4333	0	32588	32643	
4334	0	32485	32308	
4335	0	32484	32529	
4336	0	32436	32596	
4337	0	32548	32135	
4338	0	32576	32175	
4339	0	32670	32591	
4340	0	32748	32630	
4341	0	32782	32498	
4342	0	32820	32519	
4343	0	32796	32932	
4344	0	32856	32590	
4345	0	32878	32302	
4346	0	32813	32508	
4347	0	32894	32719	
4348	0	32782	32159	
4349	0	32880	31956	
4350	0	32802	32359	
4351	0	32748	32084	
4352	0	32632	32178	
4353	0	32862	32295	
4354	0	33140	32570	
4355	0	33350	32624	
4356	0	33440	32583	
4357	0	33552	32874	
4358	0	33456	32459	
4359	0	33544	31857	
4360	0	33606	32135	
4361	0	33752	32044	
4362	0	33820	31870	
4363	0	33764	32497	
4364	0	33696	32423	
4365	0	33613	32255	
4366	0	33566	32327	
4367	0	33378	31799	
4368	0	33152	32113	
4369	0	33040	32671	
4370	0	32848	32489	
4371	0	32618	32258	
4372	0	32408	32862	
4373	0	32420	32638	
4374	0	32469	32519	
4375	0	32369	32903	
4376	0	32416	32497	
4377	0	32410	31995	
4378	0	32378	32220	
4379	0	32420	32870	
4380	0	32586	33058	
4381	0	32404	32898	
4382	0	32228	32647	
4383	0	32144	32455	
4384	0	32132	32309	
4385	0	32112	32527	
4386	0	32176	32462	
4387	0	32056	32454	
4388	0	31904	32196	
4389	0	31852	32327	
4390	0	31908	32486	
4391	0	31976	32503	
4392	0	32076	31983	
4393	0	32244	31933	
4394	0	32248	32263	
4395	0	32448	32350	
4396	0	32470	32175	
4397	0	32612	32327	
4398	0	32693	32854	
4399	0	32644	33095	
4400	0	32728	32647	
4401	0	32858	32296	
4402	0	33006	32298	
4403	0	32992	32438	
4404	0	33092	32598	
4405	0	33098	32543	
4406	0	33087	32471	
4407	0	33084	32535	
4408	0	33118	32758	
4409	0	33094	32542	
4410	0	33136	32631	
4411	0	33066	32536	
4412	0	33080	32172	
4413	0	33016	32180	
4414	0	32940	32386	
4415	0	32964	32458	
4416	0	32938	32195	
4417	0	32958	32084	
4418	0	32936	32071	
4419	0	32860	32097	
4420	0	32817	32099	
4421	0	32921	32475	
4422	0	32874	32516	
4423	0	32872	32308	
4424	0	32926	32324	
4425	0	32954	32801	
4426	0	32896	32596	
4427	0	32896	32351	
4428	0	32788	32263	
4429	0	32796	32773	
4430	0	32846	32370	
4431	0	32852	32263	
4432	0	32816	32591	
4433	0	32792	32382	
4434	0	32852	32110	
4435	0	32880	32487	
4436	0	32840	32786	
4437	0	32688	32406	
4438	0	32824	32391	
4439	0	32836	32279	
4440	0	32824	32135	
4441	0	32868	32621	
4442	0	32804	32263	
4443	0	32826	32775	
4444	0	32744	32884	
4445	0	32822	32655	
4446	0	32778	32532	
4447	0	32808	32588	
4448	0	32868	32423	
4449	0	32756	32263	
4450	0	32765	32147	
4451	0	32716	32178	
4452	0	32744	32391	
4453	0	32788	32441	
4454	0	32772	32439	
4455	0	32762	32374	
4456	0	32758	32211	
4457	0	32826	31918	
4458	0	32804	31845	
4459	0	32920	32177	
4460	0	32882	32327	
4461	0	32810	32455	
4462	0	32844	32551	
4463	0	32752	32863	
4464	0	32746	32717	
4465	0	32746	32551	
4466	0	32832	32359	
4467	0	32796	32207	
4468	0	32826	32375	
4469	0	32852	32615	
4470	0	32772	32823	
4471	0	32744	32773	
4472	0	32732	32170	
4473	0	32828	31975	
4474	0	32814	32244	
4475	0	32724	32368	
4476	0	32776	32078	
4477	0	32761	31879	
4478	0	32826	32050	
4479	0	32810	32217	
4480	0	32908	32239	
4481	0	32849	32663	
4482	0	32804	32824	
4483	0	32836	32616	
4484	0	32638	32495	
4485	0	32752	32751	
4486	0	32752	32455	
4487	0	32826	32263	
4488	0	32812	32341	
4489	0	32784	32644	
4490	0	32864	32246	
4491	0	32836	32711	
4492	0	32814	32236	
4493	0	32814	31580	
4494	0	32788	32033	
4495	0	32732	32242	
4496	0	32800	32469	
4497	0	32800	32391	
4498	0	32816	32551	
4499	0	32802	32572	
4500	0	32772	32631	
4501	0	32776	32607	
4502	0	32774	32503	
4503	0	32764	32413	
4504	0	32840	32308	
4505	0	32668	32468	
4506	0	32806	32399	
4507	0	32816	32396	
4508	0	32812	32366	
4509	0	32782	32391	
4510	0	32746	32407	
4511	0	32812	32447	
4512	0	32868	32623	
4513	0	32808	32902	
4514	0	32852	32844	
4515	0	32832	32631	
4516	0	32822	32324	
4517	0	32772	32511	
4518	0	32760	32701	
4519	0	32716	32434	
4520	0	32790	32102	
4521	0	32798	31979	
4522	0	32776	32223	
4523	0	32852	32327	
4524	0	32750	32602	
4525	0	32781	32386	
4526	0	32714	32228	
4527	0	32760	32207	
4528	0	32860	32262	
4529	0	32898	32244	
4530	0	32834	32279	
4531	0	32780	32276	
4532	0	32798	32458	
4533	0	32732	32677	
4534	0	32832	32775	
4535	0	32796	32849	
4536	0	32740	32684	
4537	0	32848	32298	
4538	0	32775	32158	
4539	0	32764	31860	
4540	0	32852	31972	
4541	0	32912	32135	
4542	0	32850	32058	
4543	0	32772	32391	
4544	0	32775	32647	
4545	0	32752	32775	
4546	0	32692	32702	
4547	0	32754	32799	
4548	0	32784	32343	
4549	0	32812	31751	
4550	0	32796	32150	
4551	0	32814	32557	
4552	0	32828	32188	
4553	0	32832	32385	
4554	0	32836	31967	
4555	0	32824	31623	
4556	0	32884	32303	
4557	0	32836	32924	
4558	0	32758	32802	
4559	0	32866	32544	
4560	0	32830	32487	
4561	0	32860	32892	
4562	0	32804	32449	
4563	0	32704	32358	
4564	0	32752	32693	
4565	0	32788	32674	
4566	0	32692	32385	
4567	0	32796	32599	
4568	0	32878	32558	
4569	0	32780	32382	
4570	0	32772	32400	
4571	0	32856	32764	
4572	0	32791	32548	
4573	0	32814	32325	
4574	0	32834	32949	
4575	0	32738	33063	
4576	0	32789	32914	
4577	0	32804	32701	
4578	0	32775	32703	
4579	0	32832	32356	
4580	0	32840	32284	
4581	0	32760	32363	
4582	0	32712	31846	
4583	0	32708	31277	
4584	0	32729	30816	
4585	0	32816	31098	
4586	0	32784	31459	
4587	0	32900	32255	
4588	0	32796	32719	
4589	0	32884	32634	
4590	0	32784	32490	
4591	0	32774	32581	
4592	0	32760	32846	
4593	0	32780	32606	
4594	0	32824	32895	
4595	0	32824	33095	
4596	0	32798	32807	
4597	0	32848	32492	
4598	0	32760	32626	
4599	0	32775	32757	
4600	0	32796	32537	
4601	0	32832	32707	
4602	0	32812	32455	
4603	0	32828	32309	
4604	0	32849	32724	
4605	0	32799	32735	
4606	0	32724	32580	
4607	0	32726	32538	
4608	0	32836	32615	
4609	0	32712	32591	
4610	0	32794	32518	
4611	0	32748	32379	
4612	0	32736	32079	
4613	0	32732	32007	
4614	0	32848	32131	
4615	0	32884	32306	
4616	0	32828	32318	
4617	0	32890	32454	
4618	0	32834	32455	
4619	0	32892	32519	
4620	0	32848	32555	
4621	0	32932	32686	
4622	0	32804	32519	
4623	0	32704	32450	
4624	0	32794	32333	
4625	0	32744	32247	
4626	0	32804	32501	
4627	0	32690	32348	
4628	0	32784	32511	
4629	0	32896	32356	
4630	0	32817	32116	
4631	0	32668	32108	
4632	0	32686	31811	
4633	0	32804	31503	
4634	0	32840	31583	
4635	0	32834	31735	
4636	0	32800	31899	
4637	0	32800	32608	
4638	0	32848	32773	
4639	0	32906	32975	
4640	0	32810	33113	
4641	0	32796	32903	
4642	0	32844	32823	
4643	0	32784	32448	
4644	0	32736	32056	
4645	0	32726	32066	
4646	0	32701	32206	
4647	0	32818	32182	
4648	0	32812	32164	
4649	0	32772	31742	
4650	0	32740	32087	
4651	0	32806	32615	
4652	0	32826	32647	
4653	0	32802	32692	
4654	0	32888	32607	
4655	0	32840	32548	
4656	0	32876	32519	
4657	0	32792	32564	
4658	0	32828	32646	
4659	0	32775	32903	
4660	0	32810	32884	
4661	0	32780	32615	
4662	0	32673	32343	
4663	0	32740	32466	
4664	0	32820	32799	
4665	0	32762	32446	
4666	0	32823	31911	
4667	0	32988	31724	
4668	0	32796	31719	
4669	0	32748	31950	
4670	0	32764	32151	
4671	0	32622	32007	
4672	0	32736	32263	
4673	0	32742	32484	
4674	0	32806	32767	
4675	0	32757	32735	
4676	0	32808	32631	
4677	0	32784	32324	
4678	0	32826	32519	
4679	0	32816	32801	
4680	0	32794	32885	
4681	0	32832	32739	
4682	0	32812	32692	
4683	0	32810	32742	
4684	0	32896	32818	
4685	0	32874	32220	
4686	0	32836	31607	
4687	0	32702	31605	
4688	0	32836	31596	
4689	0	32770	31984	
4690	0	32798	32219	
4691	0	32828	32403	
4692	0	32828	32598	
4693	0	32872	32798	
4694	0	32742	32687	
4695	0	32740	32592	
4696	0	32748	32399	
4697	0	32672	32308	
4698	0	32819	32019	
4699	0	32740	32178	
4700	0	32916	32279	
4701	0	32908	32423	
4702	0	32856	32682	
4703	0	32710	32727	
4704	0	32756	32830	
4705	0	32830	32735	
4706	0	32860	32855	
4707	0	32964	32647	
4708	0	32866	32302	
4709	0	32855	32039	
4710	0	32816	32253	
4711	0	32794	32226	
4712	0	32785	31951	
4713	0	32732	32135	
4714	0	32858	32310	
4715	0	32800	32285	
4716	0	32864	32415	
4717	0	32780	32757	
4718	0	32830	33194	
4719	0	32880	32922	
4720	0	32884	32615	
4721	0	32796	32564	
4722	0	32838	32517	
4723	0	32788	32030	
4724	0	32808	31421	
4725	0	32688	30684	
4726	0	32624	30588	
4727	0	32644	31612	
4728	0	32730	32252	
4729	0	32792	32579	
4730	0	32929	32900	
4731	0	32832	33018	
4732	0	32800	33059	
4733	0	32856	32334	
4734	0	32818	32052	
4735	0	32694	31895	
4736	0	32776	32263	
4737	0	32728	32183	
4738	0	32758	32367	
4739	0	32744	32577	
4740	0	32804	32863	
4741	0	32817	32407	
4742	0	32818	32417	
4743	0	32786	32442	
4744	0	32730	32958	
4745	0	32872	33063	
4746	0	32772	32991	
4747	0	32798	32981	
4748	0	32850	32612	
4749	0	32772	32399	
4750	0	32836	32391	
4751	0	32912	32452	
4752	0	32884	32535	
4753	0	32817	32620	
4754	0	32808	32586	
4755	0	32740	32381	
4756	0	32708	32387	
4757	0	32769	32339	
4758	0	32820	32500	
4759	0	32796	32724	
4760	0	32744	32551	
4761	0	32775	32239	
4762	0	32801	32046	
4763	0	32798	32287	
4764	0	32820	32403	
4765	0	32864	32212	
4766	0	32804	31975	
4767	0	32760	32061	
4768	0	32878	32086	
4769	0	32888	32295	
4770	0	32824	32231	
4771	0	32768	31926	
4772	0	32801	31790	
4773	0	32789	32295	
4774	0	32844	32444	
4775	0	32836	32251	
4776	0	32744	32655	
4777	0	32812	32688	
4778	0	32858	32659	
4779	0	32732	32917	
4780	0	32740	32911	
4781	0	32782	32746	
4782	0	32780	32694	
4783	0	32844	32663	
4784	0	32858	32559	
4785	0	32920	32486	
4786	0	32826	32437	
4787	0	32676	32348	
4788	0	32804	32196	
4789	0	32828	31967	
4790	0	32775	32166	
4791	0	32676	32484	
4792	0	32810	32739	
4793	0	32876	33108	
4794	0	32880	33263	
4795	0	32830	33390	
4796	0	32884	32967	
4797	0	32727	32327	
4798	0	32721	32036	
4799	0	32769	32083	
4800	0	32804	32181	
4801	0	32790	31540	
4802	0	32882	31590	
4803	0	32706	31042	
4804	0	32720	31012	
4805	0	32780	31894	
4806	0	32782	32572	
4807	0	32842	32993	
4808	0	32868	33077	
4809	0	32778	32468	
4810	0	32878	32327	
4811	0	32868	32743	
4812	0	32766	32861	
4813	0	32928	32835	
4814	0	32782	32674	
4815	0	32778	32647	
4816	0	32744	32602	
4817	0	32714	32468	
4818	0	32746	32422	
4819	0	32820	32615	
4820	0	32816	32690	
4821	0	32816	32602	
4822	0	32768	32455	
4823	0	32852	32647	
4824	0	32798	33050	
4825	0	32724	32702	
4826	0	32758	32198	
4827	0	32752	32310	
4828	0	32870	32551	
4829	0	32810	32164	
4830	0	32842	31855	
4831	0	32759	32063	
4832	0	32812	32411	
4833	0	32832	32932	
4834	0	32800	33188	
4835	0	32876	32859	
4836	0	32838	32590	
4837	0	32756	31871	
4838	0	32678	31850	
4839	0	32744	31457	
4840	0	32786	31130	
4841	0	32752	31676	
4842	0	32730	31807	
4843	0	32860	32891	
4844	0	32908	32340	
4845	0	32800	32931	
4846	0	32742	32775	
4847	0	32810	33012	
4848	0	32798	32898	
4849	0	32868	32668	
4850	0	32816	32740	
4851	0	32758	32490	
4852	0	32740	32630	
4853	0	32802	32517	
4854	0	32762	32767	
4855	0	32800	32212	
4856	0	32776	32339	
4857	0	32820	32553	
4858	0	32824	32327	
4859	0	32744	32647	
4860	0	32724	32740	
4861	0	32744	32565	
4862	0	32812	32516	
4863	0	32860	32622	
4864	0	32880	32623	
4865	0	32768	32627	
4866	0	32748	32599	
4867	0	32816	32620	
4868	0	32733	32678	
4869	0	32751	32606	
4870	0	32872	32486	
4871	0	32844	32512	
4872	0	32816	32615	
4873	0	32868	32492	
4874	0	32842	32351	
4875	0	32752	32422	
4876	0	32700	32629	
4877	0	32812	32714	
4878	0	32852	32639	
4879	0	32853	32564	
4880	0	32758	32463	
4881	0	32798	32263	
4882	0	32790	31938	
4883	0	32756	31853	
4884	0	32852	32079	
4885	0	32734	32391	
4886	0	32760	32674	
4887	0	32886	32839	
4888	0	32769	32945	
4889	0	32832	32999	
4890	0	32775	32979	
4891	0	32814	32424	
4892	0	32868	32751	
4893	0	32784	32567	
4894	0	32772	32533	
4895	0	32760	32678	
4896	0	32872	32263	
4897	0	32780	32182	
4898	0	32838	31983	
4899	0	32796	32158	
4900	0	32804	31839	
4901	0	32788	32243	
4902	0	32920	31797	
4903	0	32804	31610	
4904	0	32896	32299	
4905	0	32836	32492	
4906	0	32775	32543	
4907	0	32716	32946	
4908	0	32758	33072	
4909	0	32734	32423	
4910	0	32734	32500	
4911	0	32800	32940	
4912	0	32784	32647	
4913	0	32860	32280	
4914	0	32822	32519	
4915	0	32814	32558	
4916	0	32800	32428	
4917	0	32748	32383	
4918	0	32784	32223	
4919	0	32806	32431	
4920	0	32854	32830	
4921	0	32780	32707	
4922	0	32816	32543	
4923	0	32824	32263	
4924	0	32805	31791	
4925	0	32860	31494	
4926	0	32887	31692	
4927	0	32882	32039	
4928	0	32804	32164	
4929	0	32800	32570	
4930	0	32784	32879	
4931	0	32825	33050	
4932	0	32744	32983	
4933	0	32741	32756	
4934	0	32823	32676	
4935	0	32855	32504	
4936	0	32804	32447	
4937	0	32716	32455	
4938	0	32816	32543	
4939	0	32884	32610	
4940	0	32764	32582	
4941	0	32728	32471	
4942	0	32740	32430	
4943	0	32812	32371	
4944	0	32880	32740	
4945	0	32820	32226	
4946	0	32796	32706	
4947	0	32780	32414	
4948	0	32772	32775	
4949	0	32814	32551	
4950	0	32876	32595	
4951	0	32724	32583	
4952	0	32693	32332	
4953	0	32775	32711	
4954	0	32728	32100	
4955	0	32740	32263	
4956	0	32810	31964	
4957	0	32788	31879	
4958	0	32832	32263	
4959	0	32796	32519	
4960	0	32820	32279	
4961	0	32837	32464	
4962	0	32894	32462	
4963	0	32818	32327	
4964	0	32884	32461	
4965	0	32812	32292	
4966	0	32725	31975	
4967	0	32834	32151	
4968	0	32844	32642	
4969	0	32842	32698	
4970	0	32773	32700	
4971	0	32802	32323	
4972	0	32760	32151	
4973	0	32799	32463	
4974	0	32804	32647	
4975	0	32756	32826	
4976	0	32810	32877	
4977	0	32772	32884	
4978	0	32790	32623	
4979	0	32886	32020	
4980	0	32868	31828	
4981	0	32748	32074	
4982	0	32692	32057	
4983	0	32789	32063	
4984	0	32736	32459	
4985	0	32692	32847	
4986	0	32865	33082	
4987	0	32862	33178	
4988	0	32796	32647	
4989	0	32792	32419	
4990	0	32856	32341	
4991	0	32898	32343	
4992	0	32900	32277	
4993	0	32832	32100	
4994	0	32766	31778	
4995	0	32816	31543	
4996	0	32820	31582	
4997	0	32804	32367	
4998	0	32770	33099	
4999	0	32832	33479	
5000	0	32838	33212	
5001	0	32774	32582	
5002	0	32780	32354	
5003	0	32796	32126	
5004	0	32790	32180	
5005	0	32772	32075	
5006	0	32720	31943	
5007	0	32775	31526	
5008	0	32753	31911	
5009	0	32868	32699	
5010	0	32826	32951	
5011	0	32772	32882	
5012	0	32804	33041	
5013	0	32830	32870	
5014	0	32884	32540	
5015	0	32806	32484	
5016	0	32868	32539	
5017	0	32817	32663	
5018	0	32788	32775	
5019	0	32824	32700	
5020	0	32764	32759	
5021	0	32735	32693	
5022	0	32764	32637	
5023	0	32804	32666	
5024	0	32758	32708	
5025	0	32834	32615	
5026	0	32760	32539	
5027	0	32772	32478	
5028	0	32756	32317	
5029	0	32772	32513	
5030	0	32772	32660	
5031	0	32742	32593	
5032	0	32848	32559	
5033	0	32824	32548	
5034	0	32778	32519	
5035	0	32864	32484	
5036	0	32870	32351	
5037	0	32828	32327	
5038	0	32772	32279	
5039	0	32743	32239	
5040	0	32791	32263	
5041	0	32825	32199	
5042	0	32784	32126	
5043	0	32806	31871	
5044	0	32832	31569	
5045	0	32754	32018	
5046	0	32689	32427	
5047	0	32760	32372	
5048	0	32856	32327	
5049	0	32848	32479	
5050	0	32801	32683	
5051	0	32806	32774	
5052	0	32842	32476	
5053	0	32740	32263	
5054	0	32800	32263	
5055	0	32794	32335	
5056	0	32756	32450	
5057	0	32756	32551	
5058	0	32788	32548	
5059	0	32847	32374	
5060	0	32808	32407	
5061	0	32834	32561	
5062	0	32866	32771	
5063	0	32754	32316	
5064	0	32752	32143	
5065	0	32750	32567	
5066	0	32693	32412	
5067	0	32642	32535	
5068	0	32814	32534	
5069	0	32916	32239	
5070	0	32902	31892	
5071	0	32846	31536	
5072	0	32873	31850	
5073	0	32844	32276	
5074	0	32848	32407	
5075	0	32788	32431	
5076	0	32784	32559	
5077	0	32716	32476	
5078	0	32828	32463	
5079	0	32852	32485	
5080	0	32744	32614	
5081	0	32788	32519	
5082	0	32768	32167	
5083	0	32794	32036	
5084	0	32904	31911	
5085	0	32728	32383	
5086	0	32794	32814	
5087	0	32796	32596	
5088	0	32788	32444	
5089	0	32814	32462	
5090	0	32906	32871	
5091	0	32878	32391	
5092	0	32775	32592	
5093	0	32748	32879	
5094	0	32804	32595	
5095	0	32844	32379	
5096	0	32832	32422	
5097	0	32704	32339	
5098	0	32790	32359	
5099	0	32896	32671	
5100	0	32748	32769	
5101	0	32764	32259	
5102	0	32788	32863	
5103	0	32808	32060	
5104	0	32782	31863	
5105	0	32850	31613	
5106	0	32810	31861	
5107	0	32864	32127	
5108	0	32792	32325	
5109	0	32736	32599	
5110	0	32754	32454	
5111	0	32880	32067	
5112	0	32848	31942	
5113	0	32728	32256	
5114	0	32740	32570	
5115	0	32796	32550	
5116	0	32852	32391	
5117	0	32748	32758	
5118	0	32846	32583	
5119	0	32836	32486	
5120	0	32804	32316	
5121	0	32804	32444	
5122	0	32826	32671	
5123	0	32860	32775	
5124	0	32822	32399	
5125	0	32804	32340	
5126	0	32856	32461	
5127	0	32744	32831	
5128	0	32826	32745	
5129	0	32856	32372	
5130	0	32815	32467	
5131	0	32772	32367	
5132	0	32766	32679	
5133	0	32792	32309	
5134	0	32828	32018	
5135	0	32796	32431	
5136	0	32838	31948	
5137	0	32854	32391	
5138	0	32838	32439	
5139	0	32752	32558	
5140	0	32840	32868	
5141	0	32740	32546	
5142	0	32740	32464	
5143	0	32804	32487	
5144	0	32822	32407	
5145	0	32748	32213	
5146	0	32614	32570	
5147	0	32662	32474	
5148	0	32718	32518	
5149	0	32796	32239	
5150	0	32830	32372	
5151	0	32828	32332	
5152	0	32868	32175	
5153	0	32856	31917	
5154	0	32908	31543	
5155	0	32819	31720	
5156	0	32764	32435	
5157	0	32758	32302	
5158	0	32970	32231	
5159	0	32836	32407	
5160	0	32852	32767	
5161	0	32840	32703	
5162	0	32725	32703	
5163	0	32740	32532	
5164	0	32805	32388	
5165	0	32849	32391	
5166	0	32730	32900	
5167	0	32804	32948	
5168	0	32768	32484	
5169	0	32806	32335	
5170	0	32820	32519	
5171	0	32764	32775	
5172	0	32820	32615	
5173	0	32732	32807	
5174	0	32738	32530	
5175	0	32832	32318	
5176	0	32844	32743	
5177	0	32820	32071	
5178	0	32685	31239	
5179	0	32676	31599	
5180	0	32830	31719	
5181	0	32735	31847	
5182	0	32720	32348	
5183	0	32964	32699	
5184	0	32804	33212	
5185	0	32812	33120	
5186	0	32744	32852	
5187	0	32832	32959	
5188	0	32801	32263	
5189	0	32812	31906	
5190	0	32700	32429	
5191	0	32686	31884	
5192	0	32774	31934	
5193	0	32864	33012	
5194	0	32826	33446	
5195	0	32856	33059	
5196	0	32849	32263	
5197	0	32704	31979	
5198	0	32968	31967	
5199	0	32966	32191	
5200	0	32928	32311	
5201	0	32828	32018	
5202	0	32680	32170	
5203	0	32608	32194	
5204	0	32680	31524	
5205	0	32804	31295	
5206	0	32698	32110	
5207	0	32782	32644	
5208	0	32732	32711	
5209	0	32780	32870	
5210	0	32780	33031	
5211	0	32828	33031	
5212	0	32892	32622	
5213	0	32895	32423	
5214	0	32800	32602	
5215	0	32716	32767	
5216	0	32692	32923	
5217	0	32696	32678	
5218	0	32668	32490	
5219	0	32812	32348	
5220	0	32956	32519	
5221	0	32836	32515	
5222	0	32752	32263	
5223	0	32792	32020	
5224	0	32672	32069	
5225	0	32876	32583	
5226	0	32824	32161	
5227	0	32996	31780	
5228	0	32903	32191	
5229	0	32832	32232	
5230	0	32852	32879	
5231	0	32740	32647	
5232	0	32776	32957	
5233	0	32612	32452	
5234	0	32400	32350	
5235	0	32648	32239	
5236	0	32770	31828	
5237	0	32655	32119	
5238	0	32669	31579	
5239	0	32764	32167	
5240	0	32894	32042	
5241	0	32866	32074	
5242	0	32916	32471	
5243	0	32920	32826	
5244	0	33064	33147	
5245	0	33167	33332	
5246	0	32990	33388	
5247	0	32888	33090	
5248	0	32860	32410	
5249	0	32776	31983	
5250	0	32574	31890	
5251	0	32780	32124	
5252	0	32996	32335	
5253	0	33012	32366	
5254	0	32776	32175	
5255	0	32704	32059	
5256	0	32790	32135	
5257	0	32864	32357	
5258	0	32780	32583	
5259	0	32789	32622	
5260	0	32900	32719	
5261	0	32888	32701	
5262	0	32803	32342	
5263	0	32748	32356	
5264	0	32712	32687	
5265	0	32734	32834	
5266	0	33042	32611	
5267	0	32966	32348	
5268	0	32756	32508	
5269	0	32960	32415	
5270	0	32948	32415	
5271	0	32796	32321	
5272	0	32728	32132	
5273	0	32552	31938	
5274	0	32492	32116	
5275	0	32668	32428	
5276	0	32756	32626	
5277	0	32848	32379	
5278	0	32536	31764	
5279	0	32108	31623	
5280	0	31842	32127	
5281	0	31884	32795	
5282	0	32184	32460	
5283	0	32604	32255	
5284	0	33231	33107	
5285	0	33100	33226	
5286	0	32930	32842	
5287	0	32524	32334	
5288	0	32656	32299	
5289	0	32878	32407	
5290	0	33236	32227	
5291	0	33508	31962	
5292	0	33722	31629	
5293	0	33752	31436	
5294	0	33642	31959	
5295	0	33760	32556	
5296	0	33488	33266	
5297	0	33308	33485	
5298	0	33232	32993	
5299	0	33068	32576	
5300	0	32814	32095	
5301	0	32624	31820	
5302	0	32572	32195	
5303	0	32551	31527	
5304	0	32578	32005	
5305	0	32428	32667	
5306	0	32292	33098	
5307	0	32484	33175	
5308	0	32692	33134	
5309	0	32647	33084	
5310	0	32326	32831	
5311	0	32382	32603	
5312	0	32516	32321	
5313	0	32676	32375	
5314	0	32736	32100	
5315	0	32794	32383	
5316	0	32936	32455	
5317	0	32648	32639	
5318	0	32676	32764	
5319	0	32684	32543	
5320	0	32764	32059	
5321	0	32624	31631	
5322	0	32750	31554	
5323	0	32800	31540	
5324	0	32864	31509	
5325	0	32736	31862	
5326	0	32636	32119	
5327	0	32670	32044	
5328	0	32806	32003	
5329	0	32842	32293	
5330	0	32876	32918	
5331	0	32732	32990	
5332	0	32888	32647	
5333	0	32828	32147	
5334	0	32832	32299	
5335	0	32852	32647	
5336	0	32889	32551	
5337	0	32823	32230	
5338	0	32676	31751	
5339	0	32736	31382	
5340	0	32941	31820	
5341	0	32828	32816	
5342	0	32716	33436	
5343	0	32796	33532	
5344	0	32836	33524	
5345	0	32686	33111	
5346	0	32896	32676	
5347	0	32762	32756	
5348	0	32804	32942	
5349	0	32729	32879	
5350	0	32813	32430	
5351	0	32604	31943	
5352	0	32612	32247	
5353	0	32848	32030	
5354	0	32932	31718	
5355	0	32896	32279	
5356	0	32799	32039	
5357	0	32794	31743	
5358	0	32832	31455	
5359	0	32824	31655	
5360	0	32908	32236	
5361	0	32876	33062	
5362	0	32872	33270	
5363	0	32596	33612	
5364	0	32548	33716	
5365	0	32513	32966	
5366	0	32554	32747	
5367	0	32483	32181	
5368	0	32528	32154	
5369	0	32596	32391	
5370	0	32741	32318	
5371	0	32831	31855	
5372	0	32695	32196	
5373	0	32804	32675	
5374	0	32828	32282	
5375	0	32766	32540	
5376	0	32572	32295	
5377	0	32652	32335	
5378	0	32644	32775	
5379	0	32764	33174	
5380	0	32654	33058	
5381	0	32856	32511	
5382	0	32754	32079	
5383	0	32812	32455	
5384	0	32854	32479	
5385	0	33124	32091	
5386	0	33366	32131	
5387	0	33409	32328	
5388	0	33586	31546	
5389	0	33514	31342	
5390	0	33286	31516	
5391	0	33230	32170	
5392	0	33434	32767	
5393	0	33654	32190	
5394	0	33694	31900	
5395	0	33472	32565	
5396	0	33228	32687	
5397	0	33372	32254	
5398	0	33444	31862	
5399	0	33468	31681	
5400	0	33068	31428	
5401	0	32958	31167	
5402	0	32948	32856	
5403	0	32756	34055	
5404	0	32440	34110	
5405	0	32160	33799	
5406	0	32032	33527	
5407	0	32036	32693	
5408	0	32346	32399	
5409	0	32592	32482	
5410	0	32464	32463	
5411	0	32676	32012	
5412	0	32820	32151	
5413	0	32884	31982	
5414	0	32648	32455	
5415	0	32356	32454	
5416	0	32414	32116	
5417	0	32400	31726	
5418	0	32578	32175	
5419	0	32562	32561	
5420	0	32404	32479	
5421	0	32248	32058	
5422	0	32022	32354	
5423	0	32154	32748	
5424	0	32368	32999	
5425	0	32440	32852	
5426	0	32450	32951	
5427	0	32414	32519	
5428	0	32356	31655	
5429	0	32364	31632	
5430	0	32404	31810	
5431	0	32634	32228	
5432	0	32644	32311	
5433	0	32644	32903	
5434	0	32824	32891	
5435	0	32879	32735	
5436	0	32872	32687	
5437	0	32949	32863	
5438	0	32956	32431	
5439	0	33000	32244	
5440	0	33153	32259	
5441	0	32976	32478	
5442	0	32928	32054	
5443	0	32968	32283	
5444	0	32960	32263	
5445	0	33004	32213	
5446	0	33052	32668	
5447	0	33096	32263	
5448	0	32932	31764	
5449	0	32980	32111	
5450	0	32810	32538	
5451	0	32832	32977	
5452	0	32879	32901	
5453	0	32880	32404	
5454	0	32815	32324	
5455	0	32914	32161	
5456	0	33012	32229	
5457	0	32952	32815	
5458	0	33004	32744	
5459	0	32636	32238	
5460	0	32714	32560	
5461	0	32956	32805	
5462	0	32868	32374	
5463	0	32920	32404	
5464	0	32756	32716	
5465	0	32742	32932	
5466	0	32792	32055	
5467	0	32782	31871	
5468	0	32880	32679	
5469	0	32756	32246	
5470	0	32767	32023	
5471	0	32839	32351	
5472	0	32848	32613	
5473	0	32882	32447	
5474	0	32878	32211	
5475	0	32844	32175	
5476	0	32854	32703	
5477	0	32836	32660	
5478	0	32924	32103	
5479	0	32812	32514	
5480	0	32800	32050	
5481	0	32776	32123	
5482	0	32740	31975	
5483	0	32748	31915	
5484	0	32660	32215	
5485	0	32832	31828	
5486	0	32880	32340	
5487	0	32862	33007	
5488	0	32848	32917	
5489	0	32676	32607	
5490	0	32692	32751	
5491	0	32836	32422	
5492	0	32834	32615	
5493	0	32726	32111	
5494	0	32842	32260	
5495	0	32972	32471	
5496	0	32897	32198	
5497	0	32840	32399	
5498	0	32768	32116	
5499	0	32664	32479	
5500	0	32750	32663	
5501	0	32908	32991	
5502	0	32830	33019	
5503	0	32788	32639	
5504	0	32736	32180	
5505	0	32796	32471	
5506	0	32780	32434	
5507	0	32826	32571	
5508	0	32756	32402	
5509	0	32830	32615	
5510	0	32804	33095	
5511	0	32868	32633	
5512	0	32780	31962	
5513	0	32788	31983	
5514	0	32690	32079	
5515	0	32888	32469	
5516	0	32798	32622	
5517	0	32750	32711	
5518	0	32980	32647	
5519	0	32896	32159	
5520	0	32800	31470	
5521	0	32722	31092	
5522	0	32804	31148	
5523	0	32752	31541	
5524	0	32700	32263	
5525	0	32654	33550	
5526	0	32926	33573	
5527	0	32922	33212	
5528	0	32716	32931	
5529	0	32663	32719	
5530	0	32720	32502	
5531	0	32706	32583	
5532	0	32832	32575	
5533	0	32848	32302	
5534	0	32764	32205	
5535	0	32767	32081	
5536	0	32730	32215	
5537	0	32832	32503	
5538	0	32995	32584	
5539	0	32900	32753	
5540	0	32868	32623	
5541	0	32734	32448	
5542	0	32801	32415	
5543	0	32839	32420	
5544	0	32732	32574	
5545	0	32678	32758	
5546	0	32606	33063	
5547	0	32822	33148	
5548	0	32826	32818	
5549	0	32736	32327	
5550	0	32848	32327	
5551	0	32824	32479	
5552	0	32884	32791	
5553	0	32945	32870	
5554	0	32808	32925	
5555	0	32740	32471	
5556	0	32712	32144	
5557	0	32670	31943	
5558	0	32876	32276	
5559	0	32892	32020	
5560	0	32840	32031	
5561	0	32908	32183	
5562	0	32876	32050	
5563	0	32800	31974	
5564	0	32764	31796	
5565	0	32804	32188	
5566	0	32725	32471	
5567	0	32622	32538	
5568	0	32660	32775	
5569	0	32828	32951	
5570	0	32853	32802	
5571	0	32828	31975	
5572	0	32878	31916	
5573	0	32680	32148	
5574	0	32494	32561	
5575	0	32596	32565	
5576	0	32698	32436	
5577	0	32600	32874	
5578	0	32564	33220	
5579	0	32532	32763	
5580	0	32924	32060	
5581	0	32940	31996	
5582	0	32916	32206	
5583	0	32736	32282	
5584	0	32828	32239	
5585	0	32900	32290	
5586	0	33036	32127	
5587	0	33058	32303	
5588	0	33188	32711	
5589	0	33220	32588	
5590	0	33176	32519	
5591	0	33112	32834	
5592	0	32968	32148	
5593	0	32870	32698	
5594	0	32862	32119	
5595	0	32809	32519	
5596	0	32892	32262	
5597	0	32940	32296	
5598	0	32892	31791	
5599	0	32804	32042	
5600	0	32740	31895	
5601	0	32596	32423	
5602	0	32544	32313	
5603	0	32616	32470	
5604	0	32684	32172	
5605	0	32804	32645	
5606	0	32760	32670	
5607	0	32740	32391	
5608	0	32724	32207	
5609	0	32734	32294	
5610	0	32702	32391	
5611	0	32631	32638	
5612	0	32572	32953	
5613	0	32648	33383	
5614	0	32678	33511	
5615	0	32746	33020	
5616	0	32778	32332	
5617	0	32920	31847	
5618	0	32905	31760	
5619	0	32774	32327	
5620	0	32840	32156	
5621	0	32836	32079	
5622	0	32784	32591	
5623	0	32877	33372	
5624	0	32775	33272	
5625	0	32733	33711	
5626	0	32694	33821	
5627	0	32584	33374	
5628	0	32628	32924	
5629	0	32642	32565	
5630	0	32678	32327	
5631	0	32680	31875	
5632	0	32460	31396	
5633	0	32109	31194	
5634	0	31876	31308	
5635	0	31936	31311	
5636	0	32500	31367	
5637	0	33424	31833	
5638	0	33866	32244	
5639	0	33952	32408	
5640	0	33886	32625	
5641	0	33664	33123	
5642	0	33428	33438	
5643	0	33366	33671	
5644	0	33288	33067	
5645	0	33216	33012	
5646	0	32940	33226	
5647	0	33020	33311	
5648	0	33068	32826	
5649	0	32790	32149	
5650	0	32412	31779	
5651	0	31996	31675	
5652	0	31914	31628	
5653	0	31952	31967	
5654	0	31852	32288	
5655	0	31932	32407	
5656	0	32232	32714	
5657	0	32744	32991	
5658	0	33081	33364	
5659	0	32960	33338	
5660	0	32992	33115	
5661	0	32894	32622	
5662	0	32792	32358	
5663	0	33072	32190	
5664	0	32936	32306	
5665	0	32954	32174	
5666	0	32514	32040	
5667	0	32148	32135	
5668	0	31964	32085	
5669	0	32460	32412	
5670	0	32724	32986	
5671	0	32676	33119	
5672	0	32384	33173	
5673	0	32388	32743	
5674	0	32542	32510	
5675	0	32836	32046	
5676	0	32806	31829	
5677	0	32418	31956	
5678	0	32492	33031	
5679	0	32848	32927	
5680	0	33484	33051	
5681	0	34504	32742	
5682	0	35172	32714	
5683	0	35280	32447	
5684	0	35080	32399	
5685	0	34352	31782	
5686	0	33568	31612	
5687	0	33240	31527	
5688	0	32844	31452	
5689	0	32588	32020	
5690	0	32263	32433	
5691	0	32658	33568	
5692	0	32816	33174	
5693	0	32718	33359	
5694	0	32222	33495	
5695	0	32041	32815	
5696	0	32064	32540	
5697	0	32156	32007	
5698	0	32020	31970	
5699	0	31770	31597	
5700	0	31780	31292	
5701	0	31574	31528	
5702	0	31764	31800	
5703	0	31804	31999	
5704	0	32160	32212	
5705	0	33076	32623	
5706	0	33252	32527	
5707	0	32917	32824	
5708	0	32260	32480	
5709	0	31864	32653	
5710	0	31928	32820	
5711	0	32286	32444	
5712	0	32854	32199	
5713	0	33544	32035	
5714	0	33964	32193	
5715	0	34004	32454	
5716	0	33310	33480	
5717	0	32830	34394	
5718	0	32456	34083	
5719	0	32576	33540	
5720	0	32390	33743	
5721	0	32672	33315	
5722	0	32884	33351	
5723	0	33020	33151	
5724	0	33190	32887	
5725	0	33700	32202	
5726	0	34152	31606	
