# OpenSignals Text File Format. Version 1
# {"00:07:80:4B:3C:23": {"position": 0, "device": "biosignalsplux", "device name": "00:07:80:4B:3C:23", "device connection": "BTH00:07:80:4B:3C:23", "sampling rate": 1000, "resolution": [16, 16], "firmware version": 776, "comments": "", "keywords": "", "mode": 0, "sync interval": 2, "date": "2024-9-26", "time": "11:27:0.223", "channels": [5, 7], "sensor": ["EMG", "EMG"], "label": ["CH5", "CH7"], "column": ["nSeq", "DI", "CH5", "CH7"], "special": [{"SpO2": [80, 40, 5, 4, 3, 3]}, {"SpO2": [80, 40, 5, 4, 3, 3]}, {"SpO2": [80, 40, 5, 4, 3, 3]}, {"SpO2": [80, 40, 5, 4, 3, 3]}, {"SpO2": [80, 40, 5, 4, 3, 3]}, {"SpO2": [80, 40, 5, 4, 3, 3]}, {"SpO2": [80, 40, 5, 4, 3, 3]}, {"SpO2": [80, 40, 5, 4, 3, 3]}], "digital IO": [0, 1], "sleeve color": ["gray", "brown"]}}
# EndOfHeader
0	0	33154	32615	
1	0	32922	32493	
2	0	32680	32407	
3	0	32592	32181	
4	0	32620	32063	
5	0	32496	32111	
6	0	32500	32583	
7	0	32492	32754	
8	0	32612	32820	
9	0	32848	32703	
10	0	33064	32551	
11	0	33220	32382	
12	0	32745	32399	
13	0	32650	32181	
14	0	32570	32519	
15	0	32574	32484	
16	0	32817	32455	
17	0	32724	32423	
18	0	33178	32576	
19	0	33698	32631	
20	0	33354	32631	
21	0	33062	32674	
22	0	32774	32638	
23	0	32840	32506	
24	0	32848	32287	
25	0	32644	32071	
26	0	32844	32151	
27	0	32743	32295	
28	0	32630	32330	
29	0	32502	32442	
30	0	32558	32580	
31	0	32736	32450	
32	0	33168	32404	
33	0	33408	32422	
34	0	33190	32557	
35	0	33048	32543	
36	0	32814	32335	
37	0	32840	32262	
38	0	32638	32132	
39	0	32728	32261	
40	0	32630	32441	
41	0	32620	32463	
42	0	33002	32391	
43	0	32954	32047	
44	0	32540	32159	
45	0	32552	32287	
46	0	32508	32263	
47	0	32720	32311	
48	0	32804	32457	
49	0	32844	32444	
50	0	32980	32566	
51	0	32828	32804	
52	0	32676	32722	
53	0	32721	32511	
54	0	32720	32428	
55	0	32486	32328	
56	0	32684	32258	
57	0	32724	32207	
58	0	32932	32093	
59	0	33036	32308	
60	0	32868	32407	
61	0	32924	32464	
62	0	32976	32255	
63	0	32900	32460	
64	0	32836	32868	
65	0	32852	32407	
66	0	32740	32687	
67	0	32544	32631	
68	0	32528	32238	
69	0	32664	32399	
70	0	32552	32530	
71	0	32702	31983	
72	0	32852	32215	
73	0	32906	32537	
74	0	32820	32314	
75	0	32892	32550	
76	0	33166	32575	
77	0	33036	32260	
78	0	32648	32359	
79	0	32876	32380	
80	0	32980	32847	
81	0	32996	32444	
82	0	32808	32245	
83	0	32568	32261	
84	0	32584	32287	
85	0	32740	32447	
86	0	32840	32455	
87	0	32668	32343	
88	0	32652	32111	
89	0	32694	32309	
90	0	32836	32399	
91	0	33048	32262	
92	0	32952	32239	
93	0	32880	32437	
94	0	32828	32519	
95	0	32820	32509	
96	0	32550	32599	
97	0	32470	32487	
98	0	32726	32543	
99	0	32712	32735	
100	0	32794	32671	
101	0	32900	32726	
102	0	32776	32698	
103	0	32812	32548	
104	0	32792	32391	
105	0	32750	32140	
106	0	32988	32023	
107	0	32852	32007	
108	0	32498	32122	
109	0	32612	32359	
110	0	32704	32361	
111	0	32804	32300	
112	0	32820	32177	
113	0	33050	32239	
114	0	33104	32310	
115	0	32784	32356	
116	0	32782	32364	
117	0	32790	32445	
118	0	32722	32323	
119	0	32586	32354	
120	0	32670	32327	
121	0	32620	32314	
122	0	32632	32430	
123	0	32604	32414	
124	0	32768	32403	
125	0	32916	32391	
126	0	33096	32415	
127	0	32874	32511	
128	0	32876	32343	
129	0	33132	32300	
130	0	32648	32342	
131	0	32468	32386	
132	0	32664	32351	
133	0	32744	32487	
134	0	32804	32375	
135	0	32434	32421	
136	0	32446	32386	
137	0	32610	32291	
138	0	32592	32228	
139	0	32519	32159	
140	0	32527	32276	
141	0	32744	32388	
142	0	32700	32516	
143	0	32640	32726	
144	0	32742	32798	
145	0	32796	32519	
146	0	32812	32230	
147	0	32798	32332	
148	0	32804	32292	
149	0	32618	32255	
150	0	32702	32263	
151	0	32804	32159	
152	0	32804	32111	
153	0	32924	32231	
154	0	33004	32463	
155	0	33080	32549	
156	0	33290	32438	
157	0	33576	32388	
158	0	33852	32503	
159	0	33946	32519	
160	0	34160	32287	
161	0	34104	32375	
162	0	34024	32371	
163	0	34018	32375	
164	0	33872	32383	
165	0	33764	32466	
166	0	33540	32755	
167	0	33292	32718	
168	0	33196	32706	
169	0	33110	32647	
170	0	33288	32441	
171	0	33028	32518	
172	0	32700	32327	
173	0	32526	32230	
174	0	32208	32215	
175	0	32126	32218	
176	0	32258	31946	
177	0	32232	31623	
178	0	32220	31847	
179	0	32345	32015	
180	0	32348	32068	
181	0	32348	32227	
182	0	32368	32577	
183	0	32042	32746	
184	0	31892	32874	
185	0	31996	32556	
186	0	31894	32483	
187	0	31640	32468	
188	0	31590	32391	
189	0	31634	32519	
190	0	31516	32581	
191	0	31624	32730	
192	0	31726	32612	
193	0	32160	32557	
194	0	32180	32415	
195	0	32112	32325	
196	0	32380	32263	
197	0	32606	32223	
198	0	32750	32317	
199	0	32892	32410	
200	0	32996	32560	
201	0	33144	32558	
202	0	33124	32346	
203	0	33072	32215	
204	0	33104	32207	
205	0	33124	32222	
206	0	33132	32150	
207	0	33038	32099	
208	0	33036	32229	
209	0	33124	32332	
210	0	33168	32391	
211	0	33220	32643	
212	0	33104	32661	
213	0	33100	32542	
214	0	32996	32318	
215	0	32992	32143	
216	0	32976	32285	
217	0	32972	32340	
218	0	32930	32436	
219	0	32848	32647	
220	0	32980	32663	
221	0	33012	32462	
222	0	32988	32183	
223	0	32912	32251	
224	0	32922	32503	
225	0	32758	32599	
226	0	32856	32391	
227	0	32768	32183	
228	0	32705	32215	
229	0	32900	32442	
230	0	32928	32647	
231	0	32796	32547	
232	0	32725	32379	
233	0	32913	32231	
234	0	32898	32487	
235	0	32828	32647	
236	0	32928	32716	
237	0	32836	32607	
238	0	32688	32254	
239	0	32750	32092	
240	0	32664	32205	
241	0	32660	32330	
242	0	32872	32260	
243	0	32962	32299	
244	0	32792	32311	
245	0	32736	32423	
246	0	32932	32526	
247	0	32878	32791	
248	0	32896	32647	
249	0	32948	32487	
250	0	32812	32470	
251	0	32568	32363	
252	0	32888	32295	
253	0	32962	32263	
254	0	32905	32390	
255	0	32910	32903	
256	0	32832	32900	
257	0	32680	32723	
258	0	32628	32661	
259	0	32774	32594	
260	0	32664	32534	
261	0	32656	32367	
262	0	32760	32109	
263	0	32813	31719	
264	0	32902	31441	
265	0	32782	31527	
266	0	32768	31855	
267	0	32754	31750	
268	0	32888	32162	
269	0	32936	32638	
270	0	32882	32946	
271	0	32928	32903	
272	0	32831	32619	
273	0	32917	32340	
274	0	32808	32452	
275	0	32700	32628	
276	0	32666	32513	
277	0	32596	32550	
278	0	32864	32761	
279	0	32974	32879	
280	0	32977	32741	
281	0	32788	32366	
282	0	32486	32223	
283	0	32604	32292	
284	0	32736	32359	
285	0	32728	32239	
286	0	32991	32198	
287	0	33240	32171	
288	0	33096	32295	
289	0	32804	32343	
290	0	32652	32175	
291	0	32576	32027	
292	0	32692	32063	
293	0	32714	31982	
294	0	32778	32060	
295	0	32777	32100	
296	0	32838	32207	
297	0	32792	32247	
298	0	32740	32263	
299	0	32830	32319	
300	0	32962	32463	
301	0	32682	32544	
302	0	32692	32574	
303	0	32900	32719	
304	0	32836	32666	
305	0	32735	32633	
306	0	32740	32533	
307	0	32768	32607	
308	0	32886	32444	
309	0	32840	32369	
310	0	32740	32291	
311	0	32674	32286	
312	0	32632	32243	
313	0	32685	32579	
314	0	33064	32655	
315	0	32967	32215	
316	0	33068	32344	
317	0	33008	32687	
318	0	32942	32378	
319	0	32538	32140	
320	0	32468	32263	
321	0	32666	32617	
322	0	32866	32516	
323	0	32768	32343	
324	0	32884	32230	
325	0	32442	32158	
326	0	32638	32334	
327	0	32902	32218	
328	0	32844	32663	
329	0	32758	32390	
330	0	32960	32238	
331	0	32839	32547	
332	0	33024	32670	
333	0	33076	32214	
334	0	32792	32419	
335	0	32676	32580	
336	0	32554	32407	
337	0	32806	32423	
338	0	32916	32300	
339	0	32874	32587	
340	0	32797	32750	
341	0	32804	32647	
342	0	32840	32591	
343	0	32896	32439	
344	0	32700	32124	
345	0	32641	31863	
346	0	32708	31985	
347	0	32852	32308	
348	0	32804	32486	
349	0	32924	32413	
350	0	32744	32373	
351	0	32692	32359	
352	0	32768	32346	
353	0	32708	32263	
354	0	32880	32374	
355	0	32566	32259	
356	0	32904	32391	
357	0	32768	32289	
358	0	32916	32346	
359	0	32860	32318	
360	0	32964	32375	
361	0	32992	32519	
362	0	32870	32611	
363	0	32632	32594	
364	0	32717	32693	
365	0	32736	32638	
366	0	32780	32710	
367	0	32906	32530	
368	0	32946	32391	
369	0	32796	32153	
370	0	32700	32231	
371	0	32782	32575	
372	0	32857	32893	
373	0	32740	32979	
374	0	32708	32679	
375	0	32769	32582	
376	0	32902	32185	
377	0	32862	32155	
378	0	32868	32196	
379	0	32834	32016	
380	0	32698	32049	
381	0	32624	32308	
382	0	32730	32172	
383	0	32860	32007	
384	0	32804	32199	
385	0	32740	32414	
386	0	32792	32631	
387	0	32764	32450	
388	0	32850	32474	
389	0	32870	32572	
390	0	32864	32718	
391	0	32864	32645	
392	0	32940	32639	
393	0	32772	32458	
394	0	32708	32476	
395	0	32588	32455	
396	0	32724	32613	
397	0	32734	32724	
398	0	32828	32667	
399	0	32889	32703	
400	0	32808	32663	
401	0	32838	32719	
402	0	32824	32586	
403	0	32834	32594	
404	0	32800	32582	
405	0	32754	32671	
406	0	32764	32679	
407	0	32839	32775	
408	0	32748	32799	
409	0	32685	32740	
410	0	32648	32590	
411	0	32708	32342	
412	0	32712	32049	
413	0	32812	31895	
414	0	32932	31932	
415	0	33028	32004	
416	0	32953	32207	
417	0	32740	32455	
418	0	32924	32478	
419	0	32902	32439	
420	0	32686	32391	
421	0	32702	32372	
422	0	32800	32286	
423	0	32727	32295	
424	0	32792	32463	
425	0	32748	32446	
426	0	32800	32463	
427	0	32868	32587	
428	0	32844	32580	
429	0	32884	32495	
430	0	32668	32278	
431	0	32748	32135	
432	0	32775	32205	
433	0	32808	32223	
434	0	32756	32295	
435	0	32684	32175	
436	0	32732	32239	
437	0	32792	32308	
438	0	32836	32333	
439	0	32772	32340	
440	0	32836	32364	
441	0	32824	32375	
442	0	32740	32351	
443	0	32926	32355	
444	0	32788	32287	
445	0	32812	32285	
446	0	32846	32163	
447	0	32818	32212	
448	0	32784	32257	
449	0	32900	32373	
450	0	32725	32479	
451	0	32736	32599	
452	0	32764	32679	
453	0	32880	32681	
454	0	32792	32551	
455	0	32712	32373	
456	0	32846	32335	
457	0	32745	32199	
458	0	32748	32237	
459	0	32832	32294	
460	0	32854	32282	
461	0	32897	32318	
462	0	32964	32406	
463	0	32821	32476	
464	0	32683	32498	
465	0	32698	32510	
466	0	32624	32245	
467	0	32708	32054	
468	0	32738	32202	
469	0	32740	32402	
470	0	32870	32316	
471	0	32862	32181	
472	0	32850	32378	
473	0	32896	32632	
474	0	32788	32746	
475	0	32752	32358	
476	0	32786	32282	
477	0	32904	32458	
478	0	32798	32519	
479	0	32820	32596	
480	0	32754	32725	
481	0	32812	32639	
482	0	32908	32570	
483	0	32972	32455	
484	0	32892	32079	
485	0	32738	31900	
486	0	32704	32191	
487	0	32688	32343	
488	0	32708	32745	
489	0	32764	32726	
490	0	32702	32647	
491	0	32744	32502	
492	0	32780	32478	
493	0	32736	32350	
494	0	32808	32438	
495	0	32964	32590	
496	0	32868	32518	
497	0	32768	32519	
498	0	32780	32490	
499	0	32896	32217	
500	0	32876	31951	
501	0	32800	31900	
502	0	32870	31995	
503	0	32806	32106	
504	0	32801	32339	
505	0	32716	32775	
506	0	33012	32738	
507	0	32892	32702	
508	0	32664	32671	
509	0	32772	32429	
510	0	32812	32437	
511	0	32929	32436	
512	0	32806	32327	
513	0	32812	32215	
514	0	32714	32185	
515	0	32602	32443	
516	0	32720	32595	
517	0	32812	32700	
518	0	32762	32659	
519	0	32824	32662	
520	0	32928	32807	
521	0	32912	32700	
522	0	32734	32493	
523	0	32742	31935	
524	0	32784	31887	
525	0	32876	32236	
526	0	32808	32367	
527	0	33036	32263	
528	0	32964	32263	
529	0	32748	32295	
530	0	32676	32430	
531	0	32668	32263	
532	0	32791	32326	
533	0	32684	32452	
534	0	32758	32759	
535	0	32754	32707	
536	0	32864	32729	
537	0	32764	32732	
538	0	32820	32743	
539	0	32722	32668	
540	0	32684	32703	
541	0	32700	32686	
542	0	32852	32551	
543	0	33084	32463	
544	0	32844	32434	
545	0	32824	32508	
546	0	32906	32326	
547	0	32782	32316	
548	0	32802	32382	
549	0	32752	32350	
550	0	32818	32775	
551	0	32612	32711	
552	0	32620	32671	
553	0	32661	32710	
554	0	32889	32572	
555	0	32984	32538	
556	0	32884	32519	
557	0	32570	32447	
558	0	32718	32342	
559	0	32924	32295	
560	0	32912	32148	
561	0	32876	32170	
562	0	32816	32415	
563	0	32760	32550	
564	0	32840	32671	
565	0	32788	32575	
566	0	32692	32298	
567	0	32792	32204	
568	0	32864	32295	
569	0	32924	32231	
570	0	32740	32277	
571	0	32638	32306	
572	0	32636	32263	
573	0	32800	32255	
574	0	32880	32295	
575	0	33041	32327	
576	0	33014	32311	
577	0	32840	32372	
578	0	32778	32329	
579	0	32794	32387	
580	0	32844	32458	
581	0	32654	32475	
582	0	32612	32446	
583	0	32672	32519	
584	0	32844	32478	
585	0	32817	32324	
586	0	32802	32333	
587	0	32824	32311	
588	0	32820	32391	
589	0	32756	32687	
590	0	32590	32694	
591	0	32786	32667	
592	0	32912	32631	
593	0	32884	32422	
594	0	32844	32292	
595	0	32876	32408	
596	0	32775	31989	
597	0	32730	32134	
598	0	32688	32046	
599	0	32730	31842	
600	0	32864	32535	
601	0	32870	32556	
602	0	32856	32655	
603	0	32908	32940	
604	0	32820	32487	
605	0	32728	32579	
606	0	32625	32750	
607	0	32650	32375	
608	0	32752	32501	
609	0	32932	32564	
610	0	32922	32231	
611	0	32856	32615	
612	0	32862	32526	
613	0	32826	32446	
614	0	32860	32647	
615	0	32864	32004	
616	0	32644	32431	
617	0	32697	32027	
618	0	32960	32663	
619	0	32902	31991	
620	0	32721	32415	
621	0	32820	32375	
622	0	32805	32795	
623	0	32866	32562	
624	0	32750	32305	
625	0	32714	32708	
626	0	32888	32215	
627	0	32960	32391	
628	0	32828	32348	
629	0	32789	32607	
630	0	32742	32729	
631	0	32708	32551	
632	0	32784	32504	
633	0	32828	32288	
634	0	32716	32199	
635	0	32700	32309	
636	0	32775	32362	
637	0	32710	32447	
638	0	32716	32639	
639	0	32584	32593	
640	0	32824	32771	
641	0	32980	32658	
642	0	33085	32550	
643	0	32880	32255	
644	0	32716	31833	
645	0	33031	32002	
646	0	32994	32167	
647	0	32816	32501	
648	0	32740	32397	
649	0	32752	32442	
650	0	32862	32519	
651	0	32736	32844	
652	0	32736	32545	
653	0	32710	32546	
654	0	32674	32562	
655	0	32830	32471	
656	0	32767	32454	
657	0	32758	32551	
658	0	32741	32473	
659	0	32801	32538	
660	0	32780	32358	
661	0	32762	32319	
662	0	32712	32437	
663	0	32796	32404	
664	0	32830	32499	
665	0	32756	32519	
666	0	32794	32361	
667	0	32780	32618	
668	0	32892	32605	
669	0	32980	32422	
670	0	33060	32407	
671	0	32768	32355	
672	0	32752	32020	
673	0	32676	32055	
674	0	32796	32239	
675	0	32804	32526	
676	0	32784	32775	
677	0	32840	32874	
678	0	32772	32759	
679	0	32790	32612	
680	0	32832	32378	
681	0	32701	32263	
682	0	32878	32382	
683	0	32912	32375	
684	0	32712	32509	
685	0	32826	32519	
686	0	32840	32433	
687	0	32816	32405	
688	0	32818	32620	
689	0	32710	32431	
690	0	32840	32317	
691	0	32820	32551	
692	0	32758	32391	
693	0	32798	32086	
694	0	32812	32511	
695	0	32840	32711	
696	0	32852	32623	
697	0	32872	32738	
698	0	32788	32671	
699	0	32784	32487	
700	0	32797	32526	
701	0	32644	32214	
702	0	32732	32363	
703	0	32775	32095	
704	0	32812	32215	
705	0	32784	32295	
706	0	32590	32436	
707	0	32733	32565	
708	0	33132	32791	
709	0	33068	32990	
710	0	32976	32775	
711	0	32764	32839	
712	0	32746	32611	
713	0	32868	32519	
714	0	32700	32423	
715	0	32664	32503	
716	0	32742	32399	
717	0	32650	32447	
718	0	32884	32499	
719	0	32896	32494	
720	0	32784	32500	
721	0	32808	32504	
722	0	32684	32399	
723	0	32748	32358	
724	0	32748	32322	
725	0	32686	32372	
726	0	32944	32348	
727	0	33024	32312	
728	0	33008	32407	
729	0	32828	32327	
730	0	32796	32515	
731	0	32896	32452	
732	0	32936	32604	
733	0	32831	32615	
734	0	32712	32708	
735	0	32632	32623	
736	0	32740	32354	
737	0	32730	32445	
738	0	32800	32263	
739	0	32724	32606	
740	0	32764	32712	
741	0	32988	32758	
742	0	32887	32607	
743	0	32814	32455	
744	0	32698	32354	
745	0	32646	32492	
746	0	32736	32624	
747	0	32796	32455	
748	0	32776	32071	
749	0	32660	31902	
750	0	32672	31908	
751	0	32775	31915	
752	0	32960	31969	
753	0	32766	32115	
754	0	32808	32686	
755	0	32770	32987	
756	0	32784	32943	
757	0	32798	32855	
758	0	32910	32579	
759	0	32900	32438	
760	0	32932	32414	
761	0	32828	32519	
762	0	32808	32570	
763	0	32836	32499	
764	0	32764	32263	
765	0	32792	32231	
766	0	32804	32020	
767	0	32792	31934	
768	0	32740	32108	
769	0	32740	32374	
770	0	32868	32535	
771	0	32775	32483	
772	0	32844	32259	
773	0	32764	32115	
774	0	32680	32199	
775	0	32740	32836	
776	0	32750	32695	
777	0	32830	32675	
778	0	32920	32693	
779	0	32958	32743	
780	0	32932	32930	
781	0	32744	32659	
782	0	32726	32363	
783	0	32756	32262	
784	0	32824	31951	
785	0	32748	31710	
786	0	32740	31743	
787	0	32758	32058	
788	0	32822	32325	
789	0	32752	32423	
790	0	32775	32623	
791	0	32800	32775	
792	0	32886	32847	
793	0	32868	32678	
794	0	32734	32510	
795	0	32664	32292	
796	0	32784	32293	
797	0	32824	32315	
798	0	32756	32314	
799	0	32773	32243	
800	0	32908	32249	
801	0	33118	32225	
802	0	32910	32292	
803	0	32775	32447	
804	0	32776	32340	
805	0	32768	32263	
806	0	32674	32207	
807	0	32844	32125	
808	0	32936	32006	
809	0	32799	31915	
810	0	32838	31978	
811	0	32743	32284	
812	0	32664	32314	
813	0	32772	32343	
814	0	32790	32519	
815	0	32784	32671	
816	0	32698	32738	
817	0	32638	32685	
818	0	32760	32647	
819	0	32814	32623	
820	0	32878	32718	
821	0	32860	32372	
822	0	32820	32485	
823	0	32902	32451	
824	0	32714	32263	
825	0	32716	32165	
826	0	32832	32224	
827	0	32868	32323	
828	0	32874	32192	
829	0	32724	32298	
830	0	32774	32431	
831	0	32868	32647	
832	0	32720	32695	
833	0	32646	32689	
834	0	32828	32489	
835	0	32788	32411	
836	0	32908	32287	
837	0	32724	32093	
838	0	32774	31951	
839	0	32862	31860	
840	0	32938	31972	
841	0	32902	32151	
842	0	32820	32369	
843	0	32688	32708	
844	0	32852	32775	
845	0	32738	32395	
846	0	32800	32263	
847	0	32852	32159	
848	0	32808	32308	
849	0	32812	32391	
850	0	32708	32540	
851	0	32736	32593	
852	0	32862	32519	
853	0	32820	32380	
854	0	32840	32263	
855	0	32740	32253	
856	0	32798	32346	
857	0	32821	32430	
858	0	32714	32501	
859	0	32776	32542	
860	0	32775	32463	
861	0	32728	32299	
862	0	32720	32479	
863	0	32800	32469	
864	0	32810	32519	
865	0	32864	32626	
866	0	32870	32396	
867	0	32848	32259	
868	0	32816	32218	
869	0	32836	32383	
870	0	32862	32471	
871	0	32796	32582	
872	0	32772	32499	
873	0	32729	32383	
874	0	32724	32335	
875	0	32706	32135	
876	0	32862	32263	
877	0	32986	32371	
878	0	32890	32462	
879	0	32822	32764	
880	0	32792	32623	
881	0	32830	32343	
882	0	32731	32228	
883	0	32622	32263	
884	0	32712	32284	
885	0	32788	32386	
886	0	32700	32364	
887	0	32796	32343	
888	0	32970	32343	
889	0	32917	32535	
890	0	32929	32687	
891	0	32916	32470	
892	0	32928	32343	
893	0	32804	32343	
894	0	32756	32263	
895	0	32724	31975	
896	0	32656	31924	
897	0	32768	32069	
898	0	32780	32238	
899	0	32826	32430	
900	0	32996	32542	
901	0	32904	32391	
902	0	32804	32500	
903	0	32712	32474	
904	0	32948	32547	
905	0	32948	32487	
906	0	32838	32519	
907	0	32676	32903	
908	0	32572	32391	
909	0	32644	32700	
910	0	32940	32479	
911	0	32838	32143	
912	0	32756	32447	
913	0	32852	32182	
914	0	32770	31915	
915	0	32750	31859	
916	0	32856	32135	
917	0	32784	32415	
918	0	32700	32738	
919	0	32796	32775	
920	0	32944	32831	
921	0	32912	32863	
922	0	32894	32820	
923	0	32878	32602	
924	0	32752	32567	
925	0	32724	32402	
926	0	32772	32151	
927	0	32849	32357	
928	0	32800	32556	
929	0	32732	32679	
930	0	32700	32578	
931	0	32759	32413	
932	0	32740	32260	
933	0	32910	32166	
934	0	32822	32294	
935	0	32894	32450	
936	0	32732	32308	
937	0	32778	32179	
938	0	32790	32107	
939	0	32728	32149	
940	0	32636	32191	
941	0	32616	32230	
942	0	32820	32470	
943	0	33084	32647	
944	0	33080	32775	
945	0	32884	32751	
946	0	32736	32703	
947	0	32636	32594	
948	0	32764	32505	
949	0	32936	32514	
950	0	32880	32303	
951	0	32784	32231	
952	0	32806	32279	
953	0	32788	32287	
954	0	32646	32319	
955	0	32720	32191	
956	0	32702	32150	
957	0	32620	32359	
958	0	32470	32582	
959	0	32490	32555	
960	0	32812	32575	
961	0	32928	32549	
962	0	32922	32703	
963	0	32706	32286	
964	0	32724	32639	
965	0	32684	32557	
966	0	32736	32402	
967	0	32688	32629	
968	0	32656	32671	
969	0	32740	32567	
970	0	32944	32428	
971	0	33046	32330	
972	0	32984	31991	
973	0	32960	31990	
974	0	32956	32070	
975	0	32916	32278	
976	0	32820	32486	
977	0	32916	32647	
978	0	32836	32483	
979	0	32892	32423	
980	0	33008	32572	
981	0	33072	32708	
982	0	32936	32775	
983	0	32770	32647	
984	0	32790	32756	
985	0	32796	32493	
986	0	32794	32476	
987	0	32816	32635	
988	0	32612	32775	
989	0	32454	32807	
990	0	32636	32768	
991	0	32663	32618	
992	0	33040	32500	
993	0	33024	32047	
994	0	32696	31951	
995	0	32882	32098	
996	0	33188	32331	
997	0	33184	32486	
998	0	32968	32559	
999	0	32812	32647	
1000	0	32832	32591	
1001	0	32792	32463	
1002	0	32704	32126	
1003	0	32784	32276	
1004	0	32720	32263	
1005	0	32654	32454	
1006	0	32700	32449	
1007	0	32732	32455	
1008	0	32704	32415	
1009	0	32740	32470	
1010	0	32700	32569	
1011	0	32870	32631	
1012	0	32988	32583	
1013	0	33061	32370	
1014	0	32924	32263	
1015	0	32845	32245	
1016	0	32864	32222	
1017	0	32768	32154	
1018	0	32823	32111	
1019	0	32664	32246	
1020	0	32568	32418	
1021	0	32660	32677	
1022	0	32892	32622	
1023	0	32758	32476	
1024	0	32662	32463	
1025	0	32732	32295	
1026	0	32894	32292	
1027	0	32796	32263	
1028	0	32708	32306	
1029	0	32720	32248	
1030	0	32714	32227	
1031	0	32784	32452	
1032	0	32870	32755	
1033	0	32996	33027	
1034	0	32792	32871	
1035	0	32708	32655	
1036	0	32966	32335	
1037	0	32852	32062	
1038	0	32620	32031	
1039	0	32756	32111	
1040	0	32956	32039	
1041	0	32862	32292	
1042	0	32789	32238	
1043	0	32710	32378	
1044	0	32796	32539	
1045	0	32606	32407	
1046	0	32608	32490	
1047	0	32568	32866	
1048	0	32392	32678	
1049	0	32745	32356	
1050	0	32884	32318	
1051	0	33244	32602	
1052	0	33432	32727	
1053	0	33188	32293	
1054	0	32856	32135	
1055	0	32945	32300	
1056	0	32758	32512	
1057	0	32550	32701	
1058	0	32536	32414	
1059	0	32562	32277	
1060	0	32748	32647	
1061	0	32688	32485	
1062	0	32632	32156	
1063	0	32518	32295	
1064	0	32866	32606	
1065	0	32864	32412	
1066	0	32714	32295	
1067	0	32676	32695	
1068	0	32506	32375	
1069	0	32292	32476	
1070	0	32572	32517	
1071	0	32802	32190	
1072	0	33348	32447	
1073	0	33716	32583	
1074	0	33556	32334	
1075	0	33258	32490	
1076	0	33092	32731	
1077	0	32556	32501	
1078	0	32504	32431	
1079	0	32408	32380	
1080	0	32578	32323	
1081	0	32716	32519	
1082	0	32518	32645	
1083	0	32696	32426	
1084	0	32680	31910	
1085	0	32800	31679	
1086	0	32840	31640	
1087	0	32986	31864	
1088	0	32688	32060	
1089	0	32678	32351	
1090	0	32918	32468	
1091	0	32678	32542	
1092	0	32528	32519	
1093	0	32610	32591	
1094	0	32620	32599	
1095	0	32388	32718	
1096	0	32342	32807	
1097	0	32496	32598	
1098	0	32624	32319	
1099	0	32737	32398	
1100	0	32732	32581	
1101	0	32598	32527	
1102	0	32908	32532	
1103	0	32846	32434	
1104	0	32530	32311	
1105	0	32732	32431	
1106	0	32748	32462	
1107	0	32764	32344	
1108	0	33038	32391	
1109	0	33266	32404	
1110	0	33084	32434	
1111	0	32612	32460	
1112	0	32344	32473	
1113	0	32390	32614	
1114	0	32548	32519	
1115	0	33274	32623	
1116	0	33066	32743	
1117	0	33468	32516	
1118	0	34128	32285	
1119	0	33962	32212	
1120	0	33756	32327	
1121	0	33628	32314	
1122	0	33802	32371	
1123	0	33832	32223	
1124	0	33744	32119	
1125	0	33663	32113	
1126	0	33444	32070	
1127	0	33332	32071	
1128	0	33362	32005	
1129	0	33244	31963	
1130	0	33076	32210	
1131	0	32920	32575	
1132	0	32898	32838	
1133	0	32818	32686	
1134	0	32484	32334	
1135	0	32044	32356	
1136	0	31992	32372	
1137	0	32750	32519	
1138	0	32576	32682	
1139	0	32732	32724	
1140	0	32685	32775	
1141	0	32373	32753	
1142	0	32440	32645	
1143	0	32394	32556	
1144	0	32133	32599	
1145	0	32030	32580	
1146	0	32072	32610	
1147	0	32004	32572	
1148	0	31856	32532	
1149	0	31504	32567	
1150	0	31312	32479	
1151	0	31604	32516	
1152	0	32176	32598	
1153	0	32068	32473	
1154	0	32026	32487	
1155	0	32484	32391	
1156	0	33104	32348	
1157	0	32860	32200	
1158	0	32484	32127	
1159	0	32208	32404	
1160	0	32700	32647	
1161	0	32984	32583	
1162	0	33088	32463	
1163	0	32808	32382	
1164	0	32760	32307	
1165	0	32821	32453	
1166	0	32654	32494	
1167	0	32622	32755	
1168	0	32894	32773	
1169	0	33114	32615	
1170	0	33284	32239	
1171	0	33138	32123	
1172	0	33276	32134	
1173	0	33704	32303	
1174	0	33354	32380	
1175	0	33140	32380	
1176	0	32806	32030	
1177	0	32834	31726	
1178	0	32982	32007	
1179	0	32636	32367	
1180	0	32682	32263	
1181	0	32984	32286	
1182	0	32866	32519	
1183	0	32852	32751	
1184	0	32824	32883	
1185	0	33184	32826	
1186	0	33272	32622	
1187	0	32844	32535	
1188	0	32641	32287	
1189	0	32672	32318	
1190	0	32662	32222	
1191	0	32812	32303	
1192	0	32892	32263	
1193	0	33338	32580	
1194	0	33032	32602	
1195	0	32452	32519	
1196	0	32280	32542	
1197	0	32433	32249	
1198	0	32800	32038	
1199	0	33134	31999	
1200	0	33122	32260	
1201	0	32956	32657	
1202	0	33240	32531	
1203	0	33268	32442	
1204	0	32724	32596	
1205	0	32430	32737	
1206	0	32316	32575	
1207	0	32916	32311	
1208	0	33540	32211	
1209	0	33220	32359	
1210	0	32708	32615	
1211	0	32612	32487	
1212	0	32612	32295	
1213	0	32566	32423	
1214	0	32542	32570	
1215	0	32668	32678	
1216	0	32484	32794	
1217	0	32476	32624	
1218	0	32908	32612	
1219	0	33154	32459	
1220	0	33116	32116	
1221	0	33136	32219	
1222	0	33292	32212	
1223	0	33208	32327	
1224	0	32641	32576	
1225	0	32334	32423	
1226	0	32400	32332	
1227	0	32646	32102	
1228	0	32586	32071	
1229	0	32612	32359	
1230	0	32908	32655	
1231	0	33272	32551	
1232	0	32798	32716	
1233	0	32534	32571	
1234	0	32684	32587	
1235	0	32778	32398	
1236	0	33146	32444	
1237	0	33252	32159	
1238	0	32876	32470	
1239	0	32700	32486	
1240	0	32752	32446	
1241	0	32348	32647	
1242	0	32318	32455	
1243	0	32468	32331	
1244	0	32614	32228	
1245	0	32862	32199	
1246	0	33468	32283	
1247	0	33908	32340	
1248	0	33064	32380	
1249	0	32440	32287	
1250	0	32296	32575	
1251	0	32490	32372	
1252	0	32861	31986	
1253	0	32720	32314	
1254	0	32596	32724	
1255	0	32996	32519	
1256	0	33260	32495	
1257	0	32830	32791	
1258	0	32748	32481	
1259	0	32648	32467	
1260	0	32716	32686	
1261	0	32728	32506	
1262	0	32736	32183	
1263	0	32730	32494	
1264	0	32694	32562	
1265	0	32710	32293	
1266	0	32742	32180	
1267	0	32702	32209	
1268	0	32624	32475	
1269	0	32832	32246	
1270	0	32708	32559	
1271	0	33004	32375	
1272	0	33542	31857	
1273	0	32752	31794	
1274	0	32633	32090	
1275	0	32690	32159	
1276	0	32612	32391	
1277	0	32992	32398	
1278	0	32760	32487	
1279	0	32834	32510	
1280	0	32892	32442	
1281	0	32856	32454	
1282	0	32780	32306	
1283	0	32548	32030	
1284	0	32648	31973	
1285	0	32786	32040	
1286	0	32392	32340	
1287	0	32428	32469	
1288	0	32396	32696	
1289	0	32704	32563	
1290	0	33264	32396	
1291	0	32946	32220	
1292	0	33112	32100	
1293	0	34060	32130	
1294	0	34006	32372	
1295	0	32902	32647	
1296	0	32448	32630	
1297	0	32350	32318	
1298	0	32500	32250	
1299	0	32628	32263	
1300	0	32696	32444	
1301	0	32524	32599	
1302	0	32544	32743	
1303	0	32350	32714	
1304	0	32427	32628	
1305	0	32602	32375	
1306	0	32990	32336	
1307	0	32910	32255	
1308	0	32780	32321	
1309	0	33744	32298	
1310	0	33799	32629	
1311	0	33368	32435	
1312	0	32528	32591	
1313	0	32153	32482	
1314	0	32452	32287	
1315	0	32430	32158	
1316	0	32596	32117	
1317	0	32616	32183	
1318	0	32564	32415	
1319	0	32508	32436	
1320	0	32706	32519	
1321	0	32616	32514	
1322	0	32648	32574	
1323	0	32928	32620	
1324	0	33298	32695	
1325	0	33096	32719	
1326	0	32888	32601	
1327	0	32775	32607	
1328	0	33484	32200	
1329	0	33270	32699	
1330	0	32652	32235	
1331	0	32768	32547	
1332	0	33032	32103	
1333	0	32600	32007	
1334	0	32514	32124	
1335	0	33568	32367	
1336	0	33012	32276	
1337	0	32620	32203	
1338	0	32566	32199	
1339	0	32533	32260	
1340	0	32546	32298	
1341	0	32566	32341	
1342	0	32584	32311	
1343	0	32652	32334	
1344	0	32630	32079	
1345	0	32806	32055	
1346	0	32706	32174	
1347	0	32924	32279	
1348	0	33126	32391	
1349	0	32968	32327	
1350	0	32740	32298	
1351	0	32729	32290	
1352	0	32708	32439	
1353	0	32662	32472	
1354	0	32652	32775	
1355	0	32936	32679	
1356	0	32758	32626	
1357	0	32807	32508	
1358	0	32876	32711	
1359	0	32954	32775	
1360	0	32736	32487	
1361	0	32592	32364	
1362	0	32980	32618	
1363	0	33027	32742	
1364	0	32708	32775	
1365	0	32540	32396	
1366	0	32828	32383	
1367	0	32858	32417	
1368	0	32742	32391	
1369	0	32884	32462	
1370	0	33150	32486	
1371	0	33036	32391	
1372	0	32664	32378	
1373	0	32620	32455	
1374	0	32768	32500	
1375	0	32748	32447	
1376	0	32934	32495	
1377	0	32860	32431	
1378	0	32687	32303	
1379	0	32657	32460	
1380	0	32594	32503	
1381	0	32716	32835	
1382	0	32524	32815	
1383	0	32934	32810	
1384	0	33214	32647	
1385	0	32892	32483	
1386	0	32800	32342	
1387	0	32976	32091	
1388	0	33038	31846	
1389	0	32820	31815	
1390	0	32680	31957	
1391	0	32660	32084	
1392	0	32676	32279	
1393	0	32680	32438	
1394	0	32452	32511	
1395	0	32584	32445	
1396	0	32708	32475	
1397	0	33022	32647	
1398	0	32856	32805	
1399	0	32804	32739	
1400	0	33434	32550	
1401	0	33194	32202	
1402	0	32732	31940	
1403	0	32636	31925	
1404	0	32580	32223	
1405	0	32604	32263	
1406	0	32716	32154	
1407	0	32828	32154	
1408	0	32808	32295	
1409	0	32856	32231	
1410	0	32964	32246	
1411	0	32900	32518	
1412	0	32804	32571	
1413	0	32576	32607	
1414	0	32592	32644	
1415	0	32764	32599	
1416	0	32672	32549	
1417	0	32812	32551	
1418	0	32824	32541	
1419	0	33248	32428	
1420	0	33012	32436	
1421	0	32780	32400	
1422	0	32716	32381	
1423	0	32620	32335	
1424	0	32646	32244	
1425	0	32760	32146	
1426	0	32676	32239	
1427	0	32544	32263	
1428	0	32689	32450	
1429	0	32716	32821	
1430	0	32388	32740	
1431	0	32408	32663	
1432	0	32632	32495	
1433	0	32788	32502	
1434	0	33688	32455	
1435	0	34436	32327	
1436	0	33742	31903	
1437	0	32842	31879	
1438	0	32261	31925	
1439	0	32355	32181	
1440	0	32468	32566	
1441	0	32602	32846	
1442	0	33008	32715	
1443	0	32842	32583	
1444	0	32740	32311	
1445	0	32750	32250	
1446	0	32836	32519	
1447	0	32836	32410	
1448	0	32616	32339	
1449	0	32422	32742	
1450	0	32601	32543	
1451	0	32700	32330	
1452	0	32853	32563	
1453	0	32825	32623	
1454	0	32802	32207	
1455	0	33090	32198	
1456	0	32974	32478	
1457	0	32716	32252	
1458	0	32764	32503	
1459	0	32828	32501	
1460	0	32758	32327	
1461	0	32754	32437	
1462	0	32844	32372	
1463	0	32840	32463	
1464	0	32924	32415	
1465	0	32708	32135	
1466	0	32864	32171	
1467	0	32890	32263	
1468	0	32656	32374	
1469	0	32712	32414	
1470	0	32756	32441	
1471	0	32788	32459	
1472	0	32718	32628	
1473	0	32718	32708	
1474	0	32884	32693	
1475	0	33016	32683	
1476	0	32932	32679	
1477	0	32880	32670	
1478	0	32926	32503	
1479	0	32864	32555	
1480	0	32724	32402	
1481	0	32800	32379	
1482	0	32832	32151	
1483	0	32784	32090	
1484	0	32796	31917	
1485	0	32696	31982	
1486	0	32609	32236	
1487	0	32864	32564	
1488	0	32928	32727	
1489	0	32820	32695	
1490	0	32862	32775	
1491	0	32816	32775	
1492	0	32736	32683	
1493	0	32750	32537	
1494	0	32900	32612	
1495	0	32776	32671	
1496	0	32702	32614	
1497	0	32742	32404	
1498	0	32825	32263	
1499	0	32855	32386	
1500	0	32704	32398	
1501	0	32788	32263	
1502	0	32860	32476	
1503	0	32680	32482	
1504	0	32744	32422	
1505	0	32836	32255	
1506	0	32764	32183	
1507	0	32840	32377	
1508	0	32998	32551	
1509	0	32696	32604	
1510	0	32444	32695	
1511	0	32512	32831	
1512	0	33016	32711	
1513	0	32992	32519	
1514	0	32844	32354	
1515	0	32796	32311	
1516	0	33010	32287	
1517	0	33272	32263	
1518	0	32916	32152	
1519	0	32680	31911	
1520	0	32710	32007	
1521	0	32740	32190	
1522	0	32624	32229	
1523	0	32760	32198	
1524	0	32774	32367	
1525	0	32832	32601	
1526	0	32838	32538	
1527	0	32769	32753	
1528	0	32760	32657	
1529	0	32760	32583	
1530	0	32692	32532	
1531	0	32687	32312	
1532	0	32866	32308	
1533	0	32832	32226	
1534	0	32728	32433	
1535	0	32668	32567	
1536	0	32567	32535	
1537	0	32692	32597	
1538	0	32766	32549	
1539	0	32756	32447	
1540	0	32932	32247	
1541	0	33112	32443	
1542	0	32860	32382	
1543	0	32750	32463	
1544	0	32678	32327	
1545	0	32656	32558	
1546	0	33028	32374	
1547	0	32700	32516	
1548	0	32844	32545	
1549	0	32834	32606	
1550	0	32980	32639	
1551	0	33132	32455	
1552	0	32880	32555	
1553	0	32878	32595	
1554	0	32847	32615	
1555	0	32842	32412	
1556	0	32876	32302	
1557	0	32760	32165	
1558	0	32612	32226	
1559	0	32508	32342	
1560	0	32570	32519	
1561	0	32720	32711	
1562	0	32692	32687	
1563	0	32700	32647	
1564	0	32868	32609	
1565	0	33184	32462	
1566	0	32804	32151	
1567	0	32624	32226	
1568	0	32628	32399	
1569	0	32816	32515	
1570	0	32964	32455	
1571	0	32940	32419	
1572	0	32876	32223	
1573	0	32848	32252	
1574	0	32844	32385	
1575	0	32766	32348	
1576	0	32629	32671	
1577	0	32724	32810	
1578	0	32602	32767	
1579	0	32814	32591	
1580	0	32748	32331	
1581	0	32764	32340	
1582	0	32896	32314	
1583	0	33176	32276	
1584	0	32866	32410	
1585	0	32348	32428	
1586	0	32544	32431	
1587	0	33156	32370	
1588	0	33205	32220	
1589	0	33362	32292	
1590	0	33040	32479	
1591	0	32786	32567	
1592	0	32626	32582	
1593	0	32591	32463	
1594	0	32492	32548	
1595	0	32366	32575	
1596	0	32646	32551	
1597	0	32594	32775	
1598	0	32628	32831	
1599	0	32782	32724	
1600	0	32988	32519	
1601	0	33354	32391	
1602	0	33296	32188	
1603	0	32822	32101	
1604	0	32674	31983	
1605	0	32488	32041	
1606	0	32612	32466	
1607	0	32924	32755	
1608	0	32744	32631	
1609	0	32836	32575	
1610	0	32713	32359	
1611	0	32704	32295	
1612	0	32852	32214	
1613	0	32774	32303	
1614	0	32784	32410	
1615	0	32828	32326	
1616	0	32761	32327	
1617	0	32816	32327	
1618	0	32880	32367	
1619	0	32738	32358	
1620	0	32844	32327	
1621	0	32804	32455	
1622	0	32796	32796	
1623	0	32772	32699	
1624	0	32812	32519	
1625	0	32668	32294	
1626	0	32788	32244	
1627	0	32744	32223	
1628	0	32772	32202	
1629	0	32712	32346	
1630	0	32956	32493	
1631	0	32944	32578	
1632	0	32744	32580	
1633	0	32750	32636	
1634	0	32714	32550	
1635	0	32610	32571	
1636	0	32729	32594	
1637	0	32822	32215	
1638	0	32836	32175	
1639	0	32929	32110	
1640	0	33368	32263	
1641	0	32780	32564	
1642	0	32450	32647	
1643	0	32668	32786	
1644	0	32992	32767	
1645	0	33178	32558	
1646	0	32968	32314	
1647	0	32960	32319	
1648	0	32622	32060	
1649	0	32604	31887	
1650	0	32500	32115	
1651	0	32514	32327	
1652	0	32862	32389	
1653	0	32708	32558	
1654	0	32823	32599	
1655	0	32850	32263	
1656	0	32954	32630	
1657	0	32885	32572	
1658	0	32761	32263	
1659	0	32500	32694	
1660	0	32544	32327	
1661	0	32678	32263	
1662	0	32824	32647	
1663	0	32860	32511	
1664	0	32775	32628	
1665	0	32982	32604	
1666	0	33294	32486	
1667	0	32984	32543	
1668	0	32516	32599	
1669	0	32516	32415	
1670	0	32916	32424	
1671	0	32748	32431	
1672	0	32500	32419	
1673	0	32908	32391	
1674	0	33256	32252	
1675	0	32968	32303	
1676	0	32905	32199	
1677	0	32780	32111	
1678	0	32838	32552	
1679	0	32708	32503	
1680	0	32936	32342	
1681	0	32860	32659	
1682	0	32744	32316	
1683	0	32704	32450	
1684	0	32776	32686	
1685	0	32622	32163	
1686	0	32623	32506	
1687	0	32798	32282	
1688	0	32868	32447	
1689	0	32752	32635	
1690	0	32708	32326	
1691	0	32564	32287	
1692	0	32544	32296	
1693	0	32840	32302	
1694	0	32904	32375	
1695	0	33080	32410	
1696	0	32944	32570	
1697	0	32900	32620	
1698	0	32872	32599	
1699	0	32733	32469	
1700	0	32700	32310	
1701	0	32620	32297	
1702	0	32564	32349	
1703	0	32752	32369	
1704	0	32966	32398	
1705	0	32700	32108	
1706	0	32724	32102	
1707	0	32528	32247	
1708	0	32880	32263	
1709	0	33424	32274	
1710	0	33184	32295	
1711	0	32920	32313	
1712	0	33056	32311	
1713	0	32600	32406	
1714	0	32284	32358	
1715	0	32452	32147	
1716	0	32764	32617	
1717	0	32840	32245	
1718	0	32900	32567	
1719	0	33196	32639	
1720	0	33156	32674	
1721	0	33112	32212	
1722	0	32704	32514	
1723	0	32305	32567	
1724	0	32592	32550	
1725	0	32926	32836	
1726	0	32724	32439	
1727	0	32575	32719	
1728	0	32644	32538	
1729	0	32844	32187	
1730	0	32872	32354	
1731	0	32658	31829	
1732	0	32692	31807	
1733	0	33132	32199	
1734	0	33072	31943	
1735	0	32629	32410	
1736	0	32252	32085	
1737	0	32420	32798	
1738	0	32620	32263	
1739	0	32852	32399	
1740	0	33304	32510	
1741	0	33466	32294	
1742	0	33718	32718	
1743	0	33296	32277	
1744	0	32504	32706	
1745	0	32412	32276	
1746	0	32492	32767	
1747	0	32701	32407	
1748	0	32700	32731	
1749	0	32734	32231	
1750	0	32598	32437	
1751	0	32660	32447	
1752	0	32712	32501	
1753	0	32840	32467	
1754	0	32956	32391	
1755	0	32868	32494	
1756	0	32712	32193	
1757	0	32644	32691	
1758	0	32574	32120	
1759	0	32317	32575	
1760	0	32420	32271	
1761	0	32872	32510	
1762	0	33014	32494	
1763	0	33464	32217	
1764	0	33231	32623	
1765	0	33298	32263	
1766	0	32920	32555	
1767	0	32552	32246	
1768	0	32468	32452	
1769	0	32528	32364	
1770	0	32492	32423	
1771	0	32444	32186	
1772	0	32480	32212	
1773	0	33122	32391	
1774	0	33367	32500	
1775	0	33382	32604	
1776	0	32798	32449	
1777	0	32364	32370	
1778	0	33060	32279	
1779	0	32884	32245	
1780	0	32376	32292	
1781	0	32812	32263	
1782	0	33736	32399	
1783	0	32994	32457	
1784	0	32474	32575	
1785	0	32644	32717	
1786	0	32722	32775	
1787	0	32532	32638	
1788	0	32322	32510	
1789	0	32400	32543	
1790	0	32814	32538	
1791	0	32798	32475	
1792	0	32682	32436	
1793	0	32992	32462	
1794	0	32946	32407	
1795	0	32796	32263	
1796	0	33228	31943	
1797	0	33062	31844	
1798	0	32702	31863	
1799	0	32348	32150	
1800	0	32758	32364	
1801	0	32616	32543	
1802	0	32786	32646	
1803	0	33018	32727	
1804	0	32848	32815	
1805	0	33344	32839	
1806	0	33020	32722	
1807	0	32830	32772	
1808	0	32886	32639	
1809	0	32556	32440	
1810	0	32578	32471	
1811	0	32556	32306	
1812	0	32644	32215	
1813	0	32804	32149	
1814	0	32744	32255	
1815	0	32578	32287	
1816	0	32808	32382	
1817	0	32818	32583	
1818	0	32620	32295	
1819	0	32828	32519	
1820	0	32800	32022	
1821	0	32644	32527	
1822	0	32604	32182	
1823	0	32874	32210	
1824	0	33036	32382	
1825	0	32892	32623	
1826	0	32970	32643	
1827	0	33148	32682	
1828	0	32904	32903	
1829	0	32652	32964	
1830	0	33095	32903	
1831	0	32748	32654	
1832	0	32460	32340	
1833	0	32592	32095	
1834	0	32590	31783	
1835	0	32849	31352	
1836	0	33340	31474	
1837	0	33265	31674	
1838	0	32669	32178	
1839	0	32276	32511	
1840	0	32634	32583	
1841	0	32868	32566	
1842	0	32948	32538	
1843	0	32602	32447	
1844	0	32824	32407	
1845	0	32974	32332	
1846	0	32676	32356	
1847	0	32924	32323	
1848	0	33100	32316	
1849	0	32876	32354	
1850	0	32616	32301	
1851	0	32572	32196	
1852	0	32590	32215	
1853	0	32576	32172	
1854	0	32674	32293	
1855	0	32592	32186	
1856	0	32480	32257	
1857	0	32711	32452	
1858	0	32702	32711	
1859	0	33406	32703	
1860	0	33740	32471	
1861	0	33008	32295	
1862	0	32879	32337	
1863	0	33236	32038	
1864	0	32780	32343	
1865	0	32704	32488	
1866	0	32796	32727	
1867	0	32550	32732	
1868	0	32536	32519	
1869	0	32479	32518	
1870	0	32678	32511	
1871	0	32704	32668	
1872	0	32728	32698	
1873	0	32900	32679	
1874	0	32823	32519	
1875	0	32748	32621	
1876	0	32920	32631	
1877	0	32672	32375	
1878	0	32684	32334	
1879	0	32612	32277	
1880	0	32638	32380	
1881	0	32624	32282	
1882	0	32592	32341	
1883	0	32962	32377	
1884	0	32612	32431	
1885	0	32366	32463	
1886	0	33000	32548	
1887	0	33252	32471	
1888	0	33624	32303	
1889	0	33892	32575	
1890	0	32964	32715	
1891	0	32306	32717	
1892	0	32452	32615	
1893	0	32590	32509	
1894	0	32519	32428	
1895	0	32868	32519	
1896	0	33025	32449	
1897	0	32948	32327	
1898	0	32762	32156	
1899	0	32400	32244	
1900	0	32392	32091	
1901	0	32504	32193	
1902	0	32540	32250	
1903	0	32943	32126	
1904	0	33776	32160	
1905	0	33700	32111	
1906	0	32752	32212	
1907	0	32512	32295	
1908	0	32621	32247	
1909	0	32686	32247	
1910	0	32490	32399	
1911	0	32708	32454	
1912	0	32952	32559	
1913	0	32688	32559	
1914	0	32500	32412	
1915	0	32919	32666	
1916	0	32576	32606	
1917	0	32160	32765	
1918	0	32444	32639	
1919	0	32636	32741	
1920	0	32692	32655	
1921	0	32976	32612	
1922	0	34236	32533	
1923	0	33404	32442	
1924	0	32552	32386	
1925	0	32770	32159	
1926	0	32834	31901	
1927	0	32694	31910	
1928	0	32672	31861	
1929	0	32524	31786	
1930	0	32404	32097	
1931	0	32032	32454	
1932	0	32341	32599	
1933	0	32626	32646	
1934	0	32808	32760	
1935	0	33732	32692	
1936	0	33256	32775	
1937	0	32826	32795	
1938	0	32676	32810	
1939	0	32820	32822	
1940	0	33082	32908	
1941	0	32788	32743	
1942	0	32628	32630	
1943	0	32642	32391	
1944	0	32414	32058	
1945	0	32481	32021	
1946	0	32623	31956	
1947	0	32820	32084	
1948	0	33240	32255	
1949	0	33404	32475	
1950	0	33638	32798	
1951	0	33102	32847	
1952	0	32926	32798	
1953	0	32738	32751	
1954	0	32724	32708	
1955	0	32668	32383	
1956	0	32660	32193	
1957	0	32516	32263	
1958	0	32454	32391	
1959	0	32888	32541	
1960	0	33080	32767	
1961	0	32368	32682	
1962	0	32552	32647	
1963	0	32654	32583	
1964	0	32872	32590	
1965	0	33344	32663	
1966	0	34088	32719	
1967	0	32996	32702	
1968	0	32990	32606	
1969	0	32812	32519	
1970	0	32676	32465	
1971	0	32502	32363	
1972	0	32528	32308	
1973	0	32540	32167	
1974	0	32754	32150	
1975	0	32836	32279	
1976	0	32796	32351	
1977	0	32672	32287	
1978	0	32612	32487	
1979	0	32570	32449	
1980	0	32504	32220	
1981	0	32712	32149	
1982	0	32756	32122	
1983	0	33084	32356	
1984	0	33196	32655	
1985	0	32820	32578	
1986	0	32706	32303	
1987	0	32377	32451	
1988	0	32494	32761	
1989	0	32676	32550	
1990	0	32868	32340	
1991	0	33662	32150	
1992	0	33354	32212	
1993	0	32914	32479	
1994	0	32588	32647	
1995	0	32900	32679	
1996	0	33152	32545	
1997	0	33028	32327	
1998	0	32724	32151	
1999	0	32504	32326	
2000	0	32562	32661	
2001	0	32660	32558	
2002	0	32686	32375	
2003	0	32649	32156	
2004	0	32612	32229	
2005	0	32620	32527	
2006	0	32628	32708	
2007	0	32657	32667	
2008	0	32797	32620	
2009	0	32724	32295	
2010	0	32902	32302	
2011	0	32858	32339	
2012	0	32868	32452	
2013	0	32910	32596	
2014	0	32940	32455	
2015	0	32728	32220	
2016	0	32774	32087	
2017	0	32982	32030	
2018	0	32822	32106	
2019	0	32829	32293	
2020	0	32628	32455	
2021	0	32868	32434	
2022	0	32752	32564	
2023	0	32808	32567	
2024	0	32756	32507	
2025	0	32724	32519	
2026	0	32792	32374	
2027	0	32645	32347	
2028	0	32800	32422	
2029	0	32820	32463	
2030	0	32658	32639	
2031	0	32588	32705	
2032	0	32840	32685	
2033	0	33010	32327	
2034	0	32906	32343	
2035	0	33040	32199	
2036	0	32966	32073	
2037	0	32844	32094	
2038	0	32592	32335	
2039	0	32728	32364	
2040	0	32837	32371	
2041	0	32822	32391	
2042	0	32708	32484	
2043	0	32764	32635	
2044	0	32750	32706	
2045	0	32645	32719	
2046	0	32695	32623	
2047	0	32849	32391	
2048	0	32788	32199	
2049	0	32824	32279	
2050	0	32796	32556	
2051	0	32918	32438	
2052	0	32870	32094	
2053	0	32736	32544	
2054	0	32732	32363	
2055	0	32708	32207	
2056	0	32950	32406	
2057	0	32960	32402	
2058	0	32892	32510	
2059	0	32668	32391	
2060	0	32684	32218	
2061	0	32744	32279	
2062	0	32760	32254	
2063	0	32532	32342	
2064	0	32392	32246	
2065	0	32508	32243	
2066	0	32364	32100	
2067	0	32385	32599	
2068	0	32388	32215	
2069	0	32576	32647	
2070	0	32772	32151	
2071	0	32686	32647	
2072	0	32632	32199	
2073	0	32690	32316	
2074	0	32862	32287	
2075	0	32752	32227	
2076	0	32824	32260	
2077	0	33012	32171	
2078	0	33384	32343	
2079	0	33064	32430	
2080	0	32744	32603	
2081	0	32748	32570	
2082	0	32600	32261	
2083	0	32584	32455	
2084	0	32820	32486	
2085	0	33216	32263	
2086	0	33368	32255	
2087	0	33512	32276	
2088	0	33870	32442	
2089	0	33648	32530	
2090	0	33950	32422	
2091	0	33718	32334	
2092	0	33824	32476	
2093	0	33880	32562	
2094	0	33636	32485	
2095	0	33653	32301	
2096	0	33496	32077	
2097	0	33494	32171	
2098	0	33678	32372	
2099	0	33644	32295	
2100	0	33692	32263	
2101	0	32896	32251	
2102	0	32407	32175	
2103	0	32432	32183	
2104	0	32630	32300	
2105	0	32438	32478	
2106	0	32424	32814	
2107	0	32340	32734	
2108	0	32254	32303	
2109	0	32320	32499	
2110	0	32466	32807	
2111	0	32248	32327	
2112	0	32172	32414	
2113	0	32325	32710	
2114	0	32080	32281	
2115	0	31848	32044	
2116	0	31850	32611	
2117	0	31665	32354	
2118	0	31468	32724	
2119	0	31432	32724	
2120	0	31398	32290	
2121	0	31372	32558	
2122	0	31908	32492	
2123	0	32288	31959	
2124	0	32224	32226	
2125	0	32260	31959	
2126	0	32436	32099	
2127	0	32408	32647	
2128	0	32292	32359	
2129	0	32616	32635	
2130	0	33278	32790	
2131	0	33556	32422	
2132	0	33162	32615	
2133	0	33148	32813	
2134	0	33000	32340	
2135	0	32822	32239	
2136	0	32868	32247	
2137	0	33104	32128	
2138	0	33208	32508	
2139	0	33112	32116	
2140	0	32972	32068	
2141	0	32808	32590	
2142	0	32764	32426	
2143	0	32836	32263	
2144	0	33137	32607	
2145	0	33488	32076	
2146	0	33334	32512	
2147	0	33442	32591	
2148	0	33682	32263	
2149	0	32830	32666	
2150	0	32882	32296	
2151	0	32916	32399	
2152	0	32840	32474	
2153	0	32938	32182	
2154	0	32636	32582	
2155	0	32720	32190	
2156	0	32666	32532	
2157	0	32780	32695	
2158	0	32922	32217	
2159	0	32982	32493	
2160	0	33060	32614	
2161	0	32721	32311	
2162	0	32658	32207	
2163	0	32700	32718	
2164	0	32880	32456	
2165	0	32708	32356	
2166	0	32638	32374	
2167	0	32688	32234	
2168	0	32812	32007	
2169	0	32826	32094	
2170	0	32750	32263	
2171	0	32671	32408	
2172	0	32800	32693	
2173	0	32870	32602	
2174	0	32855	32356	
2175	0	32466	32231	
2176	0	32608	32359	
2177	0	32976	32445	
2178	0	33418	32548	
2179	0	33421	32467	
2180	0	33261	32535	
2181	0	32830	32722	
2182	0	32902	32492	
2183	0	32884	32154	
2184	0	32684	32439	
2185	0	32522	32631	
2186	0	32584	32279	
2187	0	32548	32199	
2188	0	32714	32603	
2189	0	33088	32631	
2190	0	32828	32372	
2191	0	32636	32314	
2192	0	32540	32455	
2193	0	32671	32572	
2194	0	32660	32484	
2195	0	32881	32535	
2196	0	32764	32373	
2197	0	32826	32094	
2198	0	32844	32367	
2199	0	33012	32591	
2200	0	32756	32308	
2201	0	32800	32303	
2202	0	33146	32362	
2203	0	33084	32474	
2204	0	32826	32647	
2205	0	32632	32562	
2206	0	32629	32390	
2207	0	32718	32453	
2208	0	32626	32463	
2209	0	32566	32378	
2210	0	32552	32300	
2211	0	32620	32367	
2212	0	32773	32551	
2213	0	32932	32667	
2214	0	33044	32702	
2215	0	33324	32463	
2216	0	33212	32273	
2217	0	33074	32060	
2218	0	32932	31911	
2219	0	32712	32245	
2220	0	32506	32762	
2221	0	32584	32709	
2222	0	32616	32559	
2223	0	32724	32687	
2224	0	32728	32311	
2225	0	32866	32775	
2226	0	32908	32511	
2227	0	32853	32424	
2228	0	32775	32775	
2229	0	32544	32287	
2230	0	32702	32295	
2231	0	32786	32330	
2232	0	32704	31766	
2233	0	32652	31647	
2234	0	32636	32023	
2235	0	32918	32407	
2236	0	32732	32426	
2237	0	32700	32439	
2238	0	33036	32542	
2239	0	33089	32631	
2240	0	32964	32394	
2241	0	32920	32311	
2242	0	32975	32337	
2243	0	32678	32436	
2244	0	32674	32437	
2245	0	32750	32460	
2246	0	32712	32660	
2247	0	32920	32454	
2248	0	32764	32527	
2249	0	32814	32599	
2250	0	32908	32636	
2251	0	32824	32670	
2252	0	32780	32563	
2253	0	32784	32307	
2254	0	32852	32071	
2255	0	32782	32174	
2256	0	32688	32421	
2257	0	32648	32327	
2258	0	32728	32324	
2259	0	32934	32519	
2260	0	32752	32582	
2261	0	32708	32700	
2262	0	32866	32689	
2263	0	33014	32670	
2264	0	32776	32463	
2265	0	32804	32213	
2266	0	32758	32594	
2267	0	32860	32519	
2268	0	32908	32239	
2269	0	32865	32615	
2270	0	32942	32151	
2271	0	32832	32202	
2272	0	32660	32231	
2273	0	32862	32199	
2274	0	32761	32363	
2275	0	32746	32399	
2276	0	32814	32416	
2277	0	32684	32508	
2278	0	32696	32703	
2279	0	32688	32515	
2280	0	32840	32290	
2281	0	32812	32063	
2282	0	32990	32070	
2283	0	32764	32127	
2284	0	32652	32231	
2285	0	32822	32446	
2286	0	32780	32702	
2287	0	32903	32759	
2288	0	32840	32586	
2289	0	32818	32639	
2290	0	32716	32314	
2291	0	32768	32327	
2292	0	32644	32337	
2293	0	32860	32340	
2294	0	32722	32206	
2295	0	32822	32364	
2296	0	32918	32278	
2297	0	32774	32253	
2298	0	32636	32413	
2299	0	32681	32599	
2300	0	32906	32615	
2301	0	33109	32597	
2302	0	32756	32583	
2303	0	32660	32744	
2304	0	32836	32562	
2305	0	33130	32455	
2306	0	33030	32346	
2307	0	32656	32226	
2308	0	32612	32195	
2309	0	32799	32252	
2310	0	32832	32178	
2311	0	32812	32159	
2312	0	32904	32216	
2313	0	32768	32289	
2314	0	32702	32351	
2315	0	32694	32376	
2316	0	32724	32444	
2317	0	32768	32405	
2318	0	32788	32366	
2319	0	32704	32318	
2320	0	32808	32433	
2321	0	32746	32341	
2322	0	32880	32338	
2323	0	32846	32252	
2324	0	32720	32198	
2325	0	32820	32215	
2326	0	32720	32238	
2327	0	32896	32133	
2328	0	32876	32404	
2329	0	32836	32486	
2330	0	32768	32775	
2331	0	32708	32885	
2332	0	32724	32741	
2333	0	32960	32647	
2334	0	33038	32711	
2335	0	32736	32679	
2336	0	32666	32647	
2337	0	32630	32548	
2338	0	32774	32564	
2339	0	32726	32487	
2340	0	32712	32647	
2341	0	32794	32734	
2342	0	32986	32567	
2343	0	32904	32444	
2344	0	32705	32307	
2345	0	32732	32295	
2346	0	32674	32294	
2347	0	32908	32325	
2348	0	32848	32358	
2349	0	32944	32431	
2350	0	32928	32263	
2351	0	32886	32229	
2352	0	32696	32282	
2353	0	32742	32119	
2354	0	32644	32398	
2355	0	32712	32590	
2356	0	32836	32606	
2357	0	32900	32580	
2358	0	32872	32404	
2359	0	32913	32380	
2360	0	32745	32407	
2361	0	32740	32570	
2362	0	32712	32559	
2363	0	32766	32199	
2364	0	32826	32407	
2365	0	32792	32044	
2366	0	32708	31847	
2367	0	32700	32210	
2368	0	32980	32615	
2369	0	33206	32488	
2370	0	33088	32383	
2371	0	32810	32492	
2372	0	32708	32574	
2373	0	32648	32519	
2374	0	32846	32499	
2375	0	32690	32357	
2376	0	32644	32141	
2377	0	32783	32252	
2378	0	32810	32300	
2379	0	32751	32287	
2380	0	32682	32208	
2381	0	32556	32308	
2382	0	32884	32294	
2383	0	32824	32263	
2384	0	32737	32110	
2385	0	32876	32245	
2386	0	33088	32343	
2387	0	32936	32362	
2388	0	32676	32370	
2389	0	32844	32590	
2390	0	32820	32623	
2391	0	32656	32359	
2392	0	32874	32255	
2393	0	32860	32232	
2394	0	32793	32316	
2395	0	32652	32668	
2396	0	32808	32605	
2397	0	32760	32444	
2398	0	32790	32181	
2399	0	32740	32215	
2400	0	32868	32420	
2401	0	32892	32477	
2402	0	32842	32546	
2403	0	32900	32543	
2404	0	32812	32484	
2405	0	32647	32391	
2406	0	32858	32455	
2407	0	32892	32426	
2408	0	32726	32263	
2409	0	32808	32250	
2410	0	32884	32229	
2411	0	32718	32281	
2412	0	32704	32431	
2413	0	32764	32289	
2414	0	32856	32326	
2415	0	32840	32263	
2416	0	32782	32222	
2417	0	32774	32503	
2418	0	32865	32853	
2419	0	32824	32772	
2420	0	32951	32597	
2421	0	32848	32325	
2422	0	32894	32311	
2423	0	32812	32145	
2424	0	32740	32239	
2425	0	32628	32188	
2426	0	32757	32324	
2427	0	32824	32503	
2428	0	32780	32532	
2429	0	32740	32597	
2430	0	32892	32532	
2431	0	32820	32479	
2432	0	32806	32498	
2433	0	32774	32469	
2434	0	32734	32389	
2435	0	32704	32427	
2436	0	32753	32285	
2437	0	32884	32404	
2438	0	32794	32791	
2439	0	32824	32261	
2440	0	32782	31978	
2441	0	32784	31747	
2442	0	32802	31842	
2443	0	32932	32124	
2444	0	32954	32340	
2445	0	32688	32662	
2446	0	32720	32674	
2447	0	32814	32795	
2448	0	32868	32634	
2449	0	32830	32311	
2450	0	32740	32375	
2451	0	32792	32592	
2452	0	32832	32679	
2453	0	32820	32591	
2454	0	32800	32381	
2455	0	32828	32494	
2456	0	32756	32468	
2457	0	32778	32406	
2458	0	32732	32385	
2459	0	32676	32405	
2460	0	32716	32625	
2461	0	32768	32588	
2462	0	32814	32504	
2463	0	32812	32463	
2464	0	32852	32310	
2465	0	32816	32225	
2466	0	32855	32260	
2467	0	32865	32379	
2468	0	32729	32628	
2469	0	32784	32774	
2470	0	32736	32481	
2471	0	32794	32414	
2472	0	32744	32327	
2473	0	32853	32359	
2474	0	32796	32548	
2475	0	32976	32647	
2476	0	32988	32489	
2477	0	32800	32463	
2478	0	32591	32423	
2479	0	32598	32291	
2480	0	32718	32175	
2481	0	32872	32183	
2482	0	32880	32292	
2483	0	32874	32577	
2484	0	32736	32607	
2485	0	32650	32378	
2486	0	32640	32263	
2487	0	32853	32217	
2488	0	33006	32049	
2489	0	32870	32090	
2490	0	32806	32318	
2491	0	32708	32591	
2492	0	32736	32647	
2493	0	32742	32618	
2494	0	32628	32610	
2495	0	32854	32570	
2496	0	32818	32463	
2497	0	32842	32583	
2498	0	32868	32540	
2499	0	32788	32583	
2500	0	32688	32536	
2501	0	32992	32625	
2502	0	32868	32654	
2503	0	32911	32759	
2504	0	32864	32757	
2505	0	32592	32751	
2506	0	32720	32667	
2507	0	32936	32535	
2508	0	32834	32563	
2509	0	32848	32502	
2510	0	32720	32519	
2511	0	32852	32497	
2512	0	32785	32431	
2513	0	32876	32369	
2514	0	32724	32298	
2515	0	32684	32263	
2516	0	32752	32287	
2517	0	32920	32466	
2518	0	32904	32341	
2519	0	32764	32335	
2520	0	32768	32199	
2521	0	32744	32370	
2522	0	32837	32692	
2523	0	32916	32223	
2524	0	32652	32548	
2525	0	32769	32207	
2526	0	32902	32419	
2527	0	32944	32425	
2528	0	32774	32012	
2529	0	32728	32135	
2530	0	32752	32563	
2531	0	32844	32423	
2532	0	32882	32420	
2533	0	32648	32547	
2534	0	32684	32718	
2535	0	32792	32612	
2536	0	32676	32579	
2537	0	32868	32647	
2538	0	32928	32460	
2539	0	32836	32295	
2540	0	32832	32332	
2541	0	32802	32411	
2542	0	32920	32325	
2543	0	32900	32636	
2544	0	32902	32551	
2545	0	32759	32180	
2546	0	32876	32486	
2547	0	33012	32410	
2548	0	32758	32246	
2549	0	32840	32775	
2550	0	32726	32245	
2551	0	32760	32519	
2552	0	32712	32631	
2553	0	32812	32631	
2554	0	32744	32635	
2555	0	32684	32497	
2556	0	32638	32292	
2557	0	32828	32367	
2558	0	32798	32519	
2559	0	32798	32692	
2560	0	32992	32630	
2561	0	33049	32292	
2562	0	32884	32494	
2563	0	32700	32453	
2564	0	32556	32375	
2565	0	32624	32250	
2566	0	32893	32306	
2567	0	32832	32295	
2568	0	32720	32199	
2569	0	32796	32274	
2570	0	32784	32476	
2571	0	32812	32655	
2572	0	32912	32588	
2573	0	32820	32583	
2574	0	32732	32415	
2575	0	32844	32251	
2576	0	32876	32186	
2577	0	32800	32412	
2578	0	32794	32471	
2579	0	32868	32642	
2580	0	32784	32773	
2581	0	32888	32710	
2582	0	32774	32550	
2583	0	32737	32183	
2584	0	32652	32247	
2585	0	32744	32414	
2586	0	32912	32559	
2587	0	32849	32551	
2588	0	32834	32405	
2589	0	32766	32327	
2590	0	32780	32334	
2591	0	32792	32231	
2592	0	32892	32130	
2593	0	32768	32070	
2594	0	32608	32263	
2595	0	32676	32382	
2596	0	32796	32771	
2597	0	32823	32821	
2598	0	32840	32653	
2599	0	32852	32404	
2600	0	32831	32332	
2601	0	32768	32295	
2602	0	32836	32106	
2603	0	32836	32198	
2604	0	32956	32454	
2605	0	32721	32563	
2606	0	32728	32508	
2607	0	32742	32423	
2608	0	32738	32527	
2609	0	32700	32596	
2610	0	32768	32503	
2611	0	32916	32279	
2612	0	32862	32140	
2613	0	32760	32283	
2614	0	32804	32502	
2615	0	32900	32679	
2616	0	32870	32583	
2617	0	32690	32463	
2618	0	32696	32316	
2619	0	32726	32187	
2620	0	32722	32050	
2621	0	32784	32001	
2622	0	32776	32145	
2623	0	32900	32404	
2624	0	32868	32464	
2625	0	32872	32471	
2626	0	32908	32503	
2627	0	32775	32439	
2628	0	32772	32436	
2629	0	32684	32532	
2630	0	32855	32603	
2631	0	32892	32478	
2632	0	32656	32483	
2633	0	32874	32434	
2634	0	32990	32302	
2635	0	32834	32228	
2636	0	32708	32309	
2637	0	32710	32348	
2638	0	32766	32308	
2639	0	32752	32340	
2640	0	32776	32519	
2641	0	32817	32543	
2642	0	32792	32183	
2643	0	32680	32591	
2644	0	32794	32311	
2645	0	32886	32302	
2646	0	32852	32487	
2647	0	32750	32207	
2648	0	32762	32391	
2649	0	32792	32575	
2650	0	32900	32090	
2651	0	32823	32178	
2652	0	32932	32615	
2653	0	32878	32375	
2654	0	32828	32131	
2655	0	32704	32582	
2656	0	32647	32688	
2657	0	32804	32367	
2658	0	33010	32283	
2659	0	32984	32707	
2660	0	32824	32711	
2661	0	32644	32367	
2662	0	32870	32257	
2663	0	32666	32343	
2664	0	32636	32661	
2665	0	32766	32567	
2666	0	32796	32255	
2667	0	32798	32262	
2668	0	32727	32374	
2669	0	32704	32647	
2670	0	32750	32575	
2671	0	32828	32574	
2672	0	32796	32463	
2673	0	32742	32250	
2674	0	32910	32323	
2675	0	32913	32799	
2676	0	32660	32654	
2677	0	32869	32450	
2678	0	32882	32282	
2679	0	33058	32391	
2680	0	32892	32599	
2681	0	32749	32335	
2682	0	32680	32007	
2683	0	32624	31807	
2684	0	32792	32064	
2685	0	32814	32583	
2686	0	32856	32589	
2687	0	32756	32364	
2688	0	32836	32391	
2689	0	32775	32439	
2690	0	32756	32706	
2691	0	32752	32467	
2692	0	32838	32374	
2693	0	32792	32215	
2694	0	32794	32239	
2695	0	32728	32519	
2696	0	32809	32675	
2697	0	32802	32836	
2698	0	32900	32647	
2699	0	32842	32599	
2700	0	32816	32543	
2701	0	32858	32462	
2702	0	32732	32302	
2703	0	32746	32309	
2704	0	32894	32293	
2705	0	32822	32436	
2706	0	32806	32716	
2707	0	32808	32622	
2708	0	32726	32303	
2709	0	32746	32372	
2710	0	32836	32619	
2711	0	32712	32684	
2712	0	32846	32428	
2713	0	32840	32175	
2714	0	32672	32255	
2715	0	32780	32542	
2716	0	32918	32615	
2717	0	32916	32284	
2718	0	32828	32020	
2719	0	32780	32230	
2720	0	32792	32599	
2721	0	32734	32675	
2722	0	32686	32436	
2723	0	32600	32263	
2724	0	32736	32383	
2725	0	32766	32722	
2726	0	32908	32614	
2727	0	32852	32260	
2728	0	32848	32238	
2729	0	32724	32519	
2730	0	32844	32142	
2731	0	32892	32107	
2732	0	32908	32575	
2733	0	32870	32668	
2734	0	32742	32476	
2735	0	32724	32286	
2736	0	32780	32517	
2737	0	32838	32775	
2738	0	32724	32428	
2739	0	32628	32206	
2740	0	32676	32119	
2741	0	32780	32359	
2742	0	32888	32583	
2743	0	32834	32583	
2744	0	32698	32530	
2745	0	32737	32310	
2746	0	32848	32070	
2747	0	32826	32078	
2748	0	32754	32319	
2749	0	32809	32542	
2750	0	32848	32823	
2751	0	32769	32615	
2752	0	32608	32319	
2753	0	32724	32341	
2754	0	32818	32431	
2755	0	33064	32455	
2756	0	32880	32615	
2757	0	32804	32647	
2758	0	32768	32671	
2759	0	32866	32547	
2760	0	32702	32519	
2761	0	32788	32438	
2762	0	32796	32215	
2763	0	32888	32038	
2764	0	32668	32031	
2765	0	32684	32006	
2766	0	32742	32404	
2767	0	32889	32359	
2768	0	32812	32206	
2769	0	32834	32333	
2770	0	32846	32300	
2771	0	32804	32418	
2772	0	32756	32583	
2773	0	32852	32711	
2774	0	32888	32604	
2775	0	32742	32524	
2776	0	32788	32471	
2777	0	32810	32524	
2778	0	32767	32537	
2779	0	32714	32839	
2780	0	32690	32747	
2781	0	32706	32487	
2782	0	32776	32340	
2783	0	32924	32211	
2784	0	32876	32069	
2785	0	32716	32279	
2786	0	32734	32519	
2787	0	32874	32174	
2788	0	32680	32602	
2789	0	32764	32742	
2790	0	32786	32327	
2791	0	32912	32262	
2792	0	32828	32687	
2793	0	32801	32591	
2794	0	32940	32199	
2795	0	32924	32382	
2796	0	32554	32546	
2797	0	32764	32762	
2798	0	32798	32647	
2799	0	32908	32323	
2800	0	32820	32183	
2801	0	32704	32087	
2802	0	32788	31934	
2803	0	32710	31989	
2804	0	32878	32076	
2805	0	32892	32135	
2806	0	32732	32170	
2807	0	32638	32183	
2808	0	32780	32260	
2809	0	32888	32515	
2810	0	32850	32615	
2811	0	32788	32570	
2812	0	32752	32659	
2813	0	32720	32775	
2814	0	32815	32724	
2815	0	32896	32743	
2816	0	32976	32730	
2817	0	32868	32679	
2818	0	32766	32581	
2819	0	32816	32414	
2820	0	32840	32306	
2821	0	32827	32263	
2822	0	32772	32263	
2823	0	32652	32311	
2824	0	32792	32327	
2825	0	32904	32281	
2826	0	32791	32423	
2827	0	32858	32469	
2828	0	32804	32471	
2829	0	32780	32406	
2830	0	32708	32253	
2831	0	32840	32247	
2832	0	32812	31973	
2833	0	32880	31925	
2834	0	32676	32046	
2835	0	32725	32342	
2836	0	32764	32647	
2837	0	32680	32732	
2838	0	32574	32705	
2839	0	32856	32554	
2840	0	32902	32538	
2841	0	32958	32668	
2842	0	32938	32687	
2843	0	32748	32692	
2844	0	32736	32899	
2845	0	32772	32820	
2846	0	32860	32836	
2847	0	32780	32737	
2848	0	32854	32629	
2849	0	32794	32551	
2850	0	32884	32535	
2851	0	32775	32447	
2852	0	32940	32310	
2853	0	32806	32519	
2854	0	32884	32548	
2855	0	32824	32366	
2856	0	32792	32391	
2857	0	32788	32426	
2858	0	32676	32423	
2859	0	32788	32452	
2860	0	32884	32446	
2861	0	32852	32425	
2862	0	32700	32391	
2863	0	32692	32555	
2864	0	32698	32347	
2865	0	32734	32444	
2866	0	32684	32727	
2867	0	32652	32711	
2868	0	32606	32670	
2869	0	32652	32402	
2870	0	32782	32331	
2871	0	32824	32256	
2872	0	32775	32300	
2873	0	32670	32343	
2874	0	32692	32455	
2875	0	32862	32549	
2876	0	32996	32517	
2877	0	32820	32491	
2878	0	32648	32487	
2879	0	32608	32714	
2880	0	32810	32576	
2881	0	32716	32370	
2882	0	32828	32134	
2883	0	32858	32230	
2884	0	32980	32299	
2885	0	32885	32311	
2886	0	32816	32420	
2887	0	32808	32480	
2888	0	33032	32385	
2889	0	33029	32376	
2890	0	33041	32351	
2891	0	32984	32135	
2892	0	33000	32147	
2893	0	32950	32255	
2894	0	32968	32363	
2895	0	32980	32546	
2896	0	32704	32514	
2897	0	32620	32252	
2898	0	32804	32726	
2899	0	32580	32187	
2900	0	32652	32349	
2901	0	32612	32359	
2902	0	32753	32303	
2903	0	32754	32190	
2904	0	32812	32082	
2905	0	32856	32341	
2906	0	33020	32472	
2907	0	32880	32519	
2908	0	32932	32530	
2909	0	32788	32671	
2910	0	32774	32645	
2911	0	32884	32548	
2912	0	32820	32519	
2913	0	32800	32420	
2914	0	32740	32402	
2915	0	32730	32511	
2916	0	32703	32493	
2917	0	32796	32336	
2918	0	32856	32173	
2919	0	32900	32111	
2920	0	32778	32103	
2921	0	32944	32177	
2922	0	32994	32349	
2923	0	32726	32435	
2924	0	32828	32622	
2925	0	32890	32567	
2926	0	32906	32662	
2927	0	32724	32451	
2928	0	32764	32444	
2929	0	32876	32374	
2930	0	32720	32289	
2931	0	32692	32316	
2932	0	32672	32135	
2933	0	32712	32263	
2934	0	32760	32223	
2935	0	32918	32552	
2936	0	32884	32702	
2937	0	32878	32590	
2938	0	32702	32591	
2939	0	32808	32604	
2940	0	32744	32436	
2941	0	32711	32447	
2942	0	32700	32335	
2943	0	32830	32238	
2944	0	32908	32214	
2945	0	32896	32210	
2946	0	32824	32286	
2947	0	32628	32391	
2948	0	32772	32332	
2949	0	32742	32350	
2950	0	32832	32279	
2951	0	32812	32229	
2952	0	32884	32199	
2953	0	32894	32127	
2954	0	32940	32039	
2955	0	32762	32196	
2956	0	32776	32055	
2957	0	32668	32245	
2958	0	32964	32390	
2959	0	32772	32452	
2960	0	32620	32477	
2961	0	32708	32547	
2962	0	32740	32727	
2963	0	32904	32677	
2964	0	32844	32576	
2965	0	32692	32486	
2966	0	32887	32635	
2967	0	32792	32638	
2968	0	32665	32775	
2969	0	32718	32519	
2970	0	32745	32306	
2971	0	32794	32380	
2972	0	32738	32154	
2973	0	32854	32100	
2974	0	32860	32247	
2975	0	32794	32263	
2976	0	32754	32263	
2977	0	32812	32399	
2978	0	32846	32570	
2979	0	32808	32724	
2980	0	32748	32543	
2981	0	32682	32426	
2982	0	32748	32231	
2983	0	32926	32290	
2984	0	32834	32404	
2985	0	32752	32543	
2986	0	32924	32711	
2987	0	32944	32631	
2988	0	32968	32515	
2989	0	32717	32263	
2990	0	32673	32202	
2991	0	32734	32325	
2992	0	32764	32463	
2993	0	32640	32624	
2994	0	32804	32535	
2995	0	32736	32423	
2996	0	32856	32274	
2997	0	32848	32083	
2998	0	32648	32239	
2999	0	32697	32276	
3000	0	32806	32263	
3001	0	32918	32342	
3002	0	32932	32519	
3003	0	32704	32802	
3004	0	32408	32828	
3005	0	32504	32606	
3006	0	32480	32359	
3007	0	32466	32192	
3008	0	32500	32263	
3009	0	32460	32423	
3010	0	32572	32596	
3011	0	32600	32428	
3012	0	32726	31935	
3013	0	32858	31983	
3014	0	32823	32415	
3015	0	32816	32669	
3016	0	32880	32500	
3017	0	32964	32390	
3018	0	33081	32385	
3019	0	32797	32551	
3020	0	32740	32622	
3021	0	32592	32602	
3022	0	32604	32255	
3023	0	32678	32362	
3024	0	32734	32499	
3025	0	32920	32631	
3026	0	33142	32588	
3027	0	33398	32452	
3028	0	33420	32196	
3029	0	33524	32213	
3030	0	33598	32131	
3031	0	33756	32351	
3032	0	33788	32431	
3033	0	33870	32442	
3034	0	33946	32191	
3035	0	33998	32157	
3036	0	33720	32191	
3037	0	33716	32126	
3038	0	33617	32310	
3039	0	33264	32487	
3040	0	33038	32574	
3041	0	33157	32631	
3042	0	33304	32346	
3043	0	32890	32228	
3044	0	32180	32124	
3045	0	31950	32258	
3046	0	32175	32449	
3047	0	32578	32623	
3048	0	32613	32551	
3049	0	32452	32371	
3050	0	32498	32321	
3051	0	32742	32423	
3052	0	32654	32438	
3053	0	32472	32554	
3054	0	32320	32733	
3055	0	32028	32399	
3056	0	31940	32284	
3057	0	32052	32253	
3058	0	31988	32311	
3059	0	31576	32480	
3060	0	31388	32653	
3061	0	31502	32810	
3062	0	31598	32695	
3063	0	31832	32743	
3064	0	32204	32654	
3065	0	32408	32659	
3066	0	32262	32413	
3067	0	32340	32391	
3068	0	32300	32399	
3069	0	32620	32362	
3070	0	32662	32327	
3071	0	33006	32228	
3072	0	32983	32224	
3073	0	32983	32343	
3074	0	32758	32300	
3075	0	32952	32007	
3076	0	32948	31901	
3077	0	32980	32063	
3078	0	33145	32301	
3079	0	33158	32227	
3080	0	33132	32228	
3081	0	33220	32028	
3082	0	33208	32127	
3083	0	33160	32231	
3084	0	33136	32294	
3085	0	32956	32471	
3086	0	32948	32375	
3087	0	33024	32515	
3088	0	33093	32595	
3089	0	32908	32701	
3090	0	32980	32794	
3091	0	32924	32678	
3092	0	32856	32694	
3093	0	33061	32647	
3094	0	33132	32566	
3095	0	32738	32539	
3096	0	32660	32540	
3097	0	32774	32350	
3098	0	32990	32199	
3099	0	32996	32257	
3100	0	32840	32450	
3101	0	32812	32399	
3102	0	32949	32311	
3103	0	32840	32145	
3104	0	32682	32196	
3105	0	32774	32285	
3106	0	32770	32149	
3107	0	32796	31839	
3108	0	32824	32115	
3109	0	32760	32439	
3110	0	32760	32391	
3111	0	32832	32501	
3112	0	32874	32381	
3113	0	32880	32319	
3114	0	32742	32260	
3115	0	32721	32306	
3116	0	32836	32322	
3117	0	32922	32401	
3118	0	32991	32636	
3119	0	32812	32562	
3120	0	32832	32663	
3121	0	32666	32503	
3122	0	32724	32359	
3123	0	32644	32704	
3124	0	32748	32262	
3125	0	32812	32183	
3126	0	32788	32595	
3127	0	32948	32421	
3128	0	32932	32328	
3129	0	32812	32775	
3130	0	32784	32386	
3131	0	32872	32610	
3132	0	32855	32239	
3133	0	32734	32415	
3134	0	32712	32479	
3135	0	32618	32199	
3136	0	32902	32315	
3137	0	32888	32677	
3138	0	32912	32263	
3139	0	32976	32263	
3140	0	32812	32226	
3141	0	32672	32258	
3142	0	32632	32335	
3143	0	32820	32439	
3144	0	32866	32446	
3145	0	32970	32567	
3146	0	32864	32452	
3147	0	32782	32539	
3148	0	32804	32596	
3149	0	32628	32486	
3150	0	32788	32543	
3151	0	32780	32506	
3152	0	32778	32583	
3153	0	32802	32575	
3154	0	32860	32721	
3155	0	32836	32694	
3156	0	33002	32647	
3157	0	32824	32380	
3158	0	32660	32292	
3159	0	32638	32274	
3160	0	32586	32438	
3161	0	32783	32383	
3162	0	32817	32453	
3163	0	32950	32410	
3164	0	32864	32404	
3165	0	32749	32076	
3166	0	32884	32030	
3167	0	32820	32002	
3168	0	32828	32111	
3169	0	32816	32303	
3170	0	32885	32455	
3171	0	32962	32663	
3172	0	32884	32775	
3173	0	32624	32820	
3174	0	32760	32804	
3175	0	32734	32535	
3176	0	32696	32335	
3177	0	32822	32235	
3178	0	32660	32484	
3179	0	32714	32615	
3180	0	32748	32309	
3181	0	32832	32118	
3182	0	32804	31729	
3183	0	32782	31815	
3184	0	32736	32383	
3185	0	32860	32791	
3186	0	32840	32767	
3187	0	32852	32605	
3188	0	32800	32468	
3189	0	32972	32391	
3190	0	32764	32372	
3191	0	32860	32373	
3192	0	32880	32387	
3193	0	32814	32535	
3194	0	32620	32491	
3195	0	32670	32594	
3196	0	32782	32566	
3197	0	32826	32764	
3198	0	32872	32615	
3199	0	32740	32572	
3200	0	32684	32599	
3201	0	32794	32647	
3202	0	32752	32603	
3203	0	32740	32558	
3204	0	32768	32538	
3205	0	32882	32414	
3206	0	32800	31943	
3207	0	32816	31999	
3208	0	32740	32253	
3209	0	32892	32436	
3210	0	33056	32459	
3211	0	32812	32519	
3212	0	32642	32583	
3213	0	32852	32773	
3214	0	32908	32774	
3215	0	32816	32619	
3216	0	32844	32439	
3217	0	32897	32327	
3218	0	32810	32159	
3219	0	32674	32332	
3220	0	32796	32159	
3221	0	32732	31955	
3222	0	32814	32095	
3223	0	32826	32350	
3224	0	33044	32575	
3225	0	32796	32427	
3226	0	32678	32295	
3227	0	32708	32340	
3228	0	32714	32388	
3229	0	32817	32415	
3230	0	32828	32437	
3231	0	32664	32444	
3232	0	32926	32471	
3233	0	32706	32509	
3234	0	32848	32484	
3235	0	33016	32406	
3236	0	32856	32303	
3237	0	32812	32298	
3238	0	32692	32212	
3239	0	32792	32180	
3240	0	32780	32167	
3241	0	32668	32323	
3242	0	32804	32435	
3243	0	32776	32469	
3244	0	32892	32530	
3245	0	32768	32743	
3246	0	32830	32410	
3247	0	32844	32141	
3248	0	32804	32239	
3249	0	32830	32519	
3250	0	32676	32426	
3251	0	32700	32429	
3252	0	32817	32404	
3253	0	32812	32367	
3254	0	32855	32231	
3255	0	32872	32283	
3256	0	32847	32396	
3257	0	32830	32652	
3258	0	32782	32788	
3259	0	32780	32614	
3260	0	32660	32333	
3261	0	32830	32194	
3262	0	32796	32158	
3263	0	32768	32367	
3264	0	32764	32351	
3265	0	32872	32470	
3266	0	32824	32407	
3267	0	32766	32479	
3268	0	32812	32567	
3269	0	32900	32434	
3270	0	32914	32660	
3271	0	32820	32564	
3272	0	32784	32199	
3273	0	32648	32471	
3274	0	32464	32321	
3275	0	32984	31983	
3276	0	32948	32486	
3277	0	32900	32676	
3278	0	32766	32263	
3279	0	32804	32253	
3280	0	32730	32583	
3281	0	32964	32426	
3282	0	32624	32350	
3283	0	32768	32692	
3284	0	32774	32372	
3285	0	32885	32450	
3286	0	32928	32563	
3287	0	32724	32164	
3288	0	32700	32508	
3289	0	32813	32548	
3290	0	32922	32607	
3291	0	32846	32428	
3292	0	32742	32348	
3293	0	32902	32287	
3294	0	32766	32314	
3295	0	32792	32220	
3296	0	32950	32290	
3297	0	32808	32215	
3298	0	32564	32203	
3299	0	32838	32067	
3300	0	32828	32191	
3301	0	32792	32220	
3302	0	32752	32263	
3303	0	32716	32678	
3304	0	32760	32807	
3305	0	32720	32871	
3306	0	32790	32854	
3307	0	32848	32742	
3308	0	32724	32529	
3309	0	32698	32447	
3310	0	32878	32235	
3311	0	32844	31943	
3312	0	32810	31926	
3313	0	32920	32044	
3314	0	32758	32197	
3315	0	32578	32327	
3316	0	32684	32308	
3317	0	32838	32308	
3318	0	32937	32467	
3319	0	32854	32572	
3320	0	32996	32294	
3321	0	32990	32500	
3322	0	32712	32498	
3323	0	32632	32053	
3324	0	32902	32327	
3325	0	32908	32135	
3326	0	32712	32159	
3327	0	32799	32686	
3328	0	32855	32582	
3329	0	32750	32702	
3330	0	32618	32762	
3331	0	32818	32647	
3332	0	32748	32519	
3333	0	32846	32437	
3334	0	32836	32566	
3335	0	32724	32543	
3336	0	32752	32804	
3337	0	33012	32687	
3338	0	32996	32518	
3339	0	32876	32311	
3340	0	32752	32059	
3341	0	32814	32038	
3342	0	32682	32053	
3343	0	32750	32126	
3344	0	32700	32357	
3345	0	32668	32727	
3346	0	32804	32822	
3347	0	32826	32765	
3348	0	32852	32294	
3349	0	32756	32540	
3350	0	32704	32399	
3351	0	32784	32295	
3352	0	32784	32532	
3353	0	32736	32214	
3354	0	32840	32292	
3355	0	32832	32351	
3356	0	32800	32444	
3357	0	32884	32500	
3358	0	32936	32278	
3359	0	32783	32584	
3360	0	32648	32503	
3361	0	32628	32191	
3362	0	32782	32518	
3363	0	32865	32134	
3364	0	32884	32285	
3365	0	32792	32548	
3366	0	32878	32382	
3367	0	32818	32695	
3368	0	32808	32459	
3369	0	32866	32206	
3370	0	32774	32559	
3371	0	32692	32600	
3372	0	32732	32355	
3373	0	32838	32380	
3374	0	32784	32347	
3375	0	32804	31965	
3376	0	32768	32357	
3377	0	32806	32715	
3378	0	32822	32263	
3379	0	32826	32290	
3380	0	32764	32547	
3381	0	32820	32124	
3382	0	32894	32534	
3383	0	32680	32386	
3384	0	32740	32418	
3385	0	32904	32837	
3386	0	32992	32295	
3387	0	32909	32575	
3388	0	32864	32538	
3389	0	32642	32199	
3390	0	32721	32732	
3391	0	32844	32327	
3392	0	32786	32487	
3393	0	32764	32438	
3394	0	32640	32228	
3395	0	32796	32610	
3396	0	32881	32430	
3397	0	32606	32398	
3398	0	32632	32436	
3399	0	32818	32224	
3400	0	33124	32474	
3401	0	32936	32190	
3402	0	32820	32327	
3403	0	32816	32707	
3404	0	32780	32263	
3405	0	32824	32470	
3406	0	32872	32743	
3407	0	32870	32350	
3408	0	32766	32259	
3409	0	32744	32123	
3410	0	32792	32253	
3411	0	32682	32527	
3412	0	32646	32343	
3413	0	32772	32263	
3414	0	32708	32227	
3415	0	32892	32333	
3416	0	32772	32499	
3417	0	32964	32567	
3418	0	32792	32555	
3419	0	32822	32620	
3420	0	32825	32594	
3421	0	32852	32575	
3422	0	32864	32510	
3423	0	32608	32578	
3424	0	32728	32358	
3425	0	32842	32215	
3426	0	32800	32325	
3427	0	32788	32302	
3428	0	32832	32303	
3429	0	32764	32476	
3430	0	32744	32588	
3431	0	32796	32681	
3432	0	32742	32639	
3433	0	32857	32604	
3434	0	32884	32423	
3435	0	32676	32389	
3436	0	32708	32110	
3437	0	32862	31998	
3438	0	32852	32239	
3439	0	32860	32382	
3440	0	32798	32643	
3441	0	32738	32711	
3442	0	32968	32775	
3443	0	32942	32693	
3444	0	32740	32591	
3445	0	32718	32468	
3446	0	32705	32302	
3447	0	32860	32375	
3448	0	32748	32319	
3449	0	32880	32316	
3450	0	32832	32295	
3451	0	32864	32327	
3452	0	32796	32356	
3453	0	32794	32422	
3454	0	32724	32405	
3455	0	32980	32409	
3456	0	32932	32599	
3457	0	32784	32795	
3458	0	32868	32436	
3459	0	32976	32423	
3460	0	32752	32615	
3461	0	32548	32674	
3462	0	32636	32501	
3463	0	32692	32458	
3464	0	32780	32293	
3465	0	32769	32124	
3466	0	32908	32242	
3467	0	32762	32583	
3468	0	32732	32510	
3469	0	33006	32243	
3470	0	32844	32199	
3471	0	32744	32175	
3472	0	32724	32315	
3473	0	32852	32871	
3474	0	32924	32799	
3475	0	32654	32735	
3476	0	32836	32634	
3477	0	32798	32503	
3478	0	32792	32285	
3479	0	32828	32084	
3480	0	32942	32318	
3481	0	32952	32679	
3482	0	32845	32734	
3483	0	32880	32606	
3484	0	32772	32373	
3485	0	32688	32302	
3486	0	32796	32305	
3487	0	32774	32287	
3488	0	32924	32292	
3489	0	32740	32487	
3490	0	32622	32479	
3491	0	32644	32546	
3492	0	32754	32510	
3493	0	32804	32314	
3494	0	32792	32423	
3495	0	32976	32744	
3496	0	32954	32556	
3497	0	32836	32334	
3498	0	32906	32110	
3499	0	32790	32158	
3500	0	32940	32246	
3501	0	32798	32503	
3502	0	32730	32519	
3503	0	32664	32514	
3504	0	32632	32614	
3505	0	32784	32594	
3506	0	32826	32563	
3507	0	32794	32391	
3508	0	32752	32287	
3509	0	32856	32513	
3510	0	32756	32620	
3511	0	32878	32191	
3512	0	32880	31867	
3513	0	32840	32207	
3514	0	32936	32606	
3515	0	32694	32519	
3516	0	32596	32340	
3517	0	32610	32449	
3518	0	32736	32404	
3519	0	32836	32534	
3520	0	32934	32806	
3521	0	32880	32606	
3522	0	32761	32514	
3523	0	32806	32437	
3524	0	32862	32300	
3525	0	32775	32202	
3526	0	32756	32351	
3527	0	32852	32442	
3528	0	32830	32534	
3529	0	33100	32710	
3530	0	32970	32631	
3531	0	32664	32557	
3532	0	32660	32462	
3533	0	32728	32103	
3534	0	32732	32055	
3535	0	32708	32335	
3536	0	32808	32607	
3537	0	32813	32558	
3538	0	32946	32438	
3539	0	32756	32100	
3540	0	32752	32232	
3541	0	32884	32207	
3542	0	32918	32422	
3543	0	32844	32679	
3544	0	32840	32558	
3545	0	32648	32311	
3546	0	32740	32226	
3547	0	32757	32285	
3548	0	32848	32367	
3549	0	32952	32579	
3550	0	32852	32713	
3551	0	32763	32574	
3552	0	32636	32507	
3553	0	32820	32468	
3554	0	32824	32263	
3555	0	32724	32239	
3556	0	32744	32311	
3557	0	32820	32348	
3558	0	32890	32436	
3559	0	32860	32717	
3560	0	32724	32603	
3561	0	32682	32578	
3562	0	32614	32479	
3563	0	32852	32361	
3564	0	32984	32295	
3565	0	32856	32319	
3566	0	32816	32244	
3567	0	32740	32263	
3568	0	32754	32255	
3569	0	32682	32556	
3570	0	32744	32511	
3571	0	32886	32478	
3572	0	32794	32332	
3573	0	32864	32428	
3574	0	32846	32491	
3575	0	32596	32391	
3576	0	32652	32311	
3577	0	32918	32231	
3578	0	32870	32316	
3579	0	32932	32538	
3580	0	32972	32660	
3581	0	32900	32195	
3582	0	32742	32548	
3583	0	32722	32383	
3584	0	32784	32147	
3585	0	32892	32494	
3586	0	32868	32442	
3587	0	32736	32215	
3588	0	32644	32518	
3589	0	32648	32519	
3590	0	32802	32295	
3591	0	32694	32671	
3592	0	32840	32506	
3593	0	32797	32462	
3594	0	32754	32725	
3595	0	32894	32391	
3596	0	32818	32615	
3597	0	32908	32402	
3598	0	32934	32419	
3599	0	32804	32074	
3600	0	32772	32172	
3601	0	32728	32263	
3602	0	32844	32501	
3603	0	32870	32508	
3604	0	32832	32716	
3605	0	32752	32469	
3606	0	32822	32563	
3607	0	32852	32186	
3608	0	32818	32199	
3609	0	32768	32231	
3610	0	32870	32244	
3611	0	32794	32199	
3612	0	32900	31949	
3613	0	32876	32062	
3614	0	32816	32414	
3615	0	32716	32670	
3616	0	32624	32663	
3617	0	32592	32577	
3618	0	32588	32758	
3619	0	32764	32810	
3620	0	32822	32803	
3621	0	32888	32775	
3622	0	32834	32687	
3623	0	32794	32612	
3624	0	32930	32495	
3625	0	32740	32244	
3626	0	32700	32099	
3627	0	32740	32255	
3628	0	32932	32335	
3629	0	32900	32463	
3630	0	32892	32729	
3631	0	32956	32630	
3632	0	32894	32601	
3633	0	32784	32357	
3634	0	32740	32307	
3635	0	32876	32294	
3636	0	32628	32383	
3637	0	32750	32583	
3638	0	32806	32659	
3639	0	32884	32620	
3640	0	32988	32479	
3641	0	32775	32435	
3642	0	32760	32351	
3643	0	32724	32214	
3644	0	32817	32067	
3645	0	32790	32125	
3646	0	32757	32327	
3647	0	32817	32551	
3648	0	32900	32738	
3649	0	32920	32682	
3650	0	32752	32415	
3651	0	32692	32263	
3652	0	32684	32207	
3653	0	32769	32310	
3654	0	32792	32503	
3655	0	32794	32727	
3656	0	32814	32566	
3657	0	32929	32289	
3658	0	32916	32166	
3659	0	32808	32420	
3660	0	32864	32695	
3661	0	32736	32634	
3662	0	32804	32526	
3663	0	32848	32239	
3664	0	32844	32127	
3665	0	32694	32055	
3666	0	32748	32023	
3667	0	32762	31996	
3668	0	32700	32346	
3669	0	32775	32551	
3670	0	32710	32159	
3671	0	32656	32382	
3672	0	32773	32775	
3673	0	32848	32387	
3674	0	32982	32287	
3675	0	32900	32751	
3676	0	32878	32303	
3677	0	32754	32591	
3678	0	32860	32677	
3679	0	32836	32647	
3680	0	32858	32474	
3681	0	32656	32358	
3682	0	32680	32455	
3683	0	32730	32415	
3684	0	32895	32476	
3685	0	32876	32738	
3686	0	32781	32655	
3687	0	32816	32356	
3688	0	32814	32147	
3689	0	32844	32166	
3690	0	32832	32263	
3691	0	32730	32263	
3692	0	32726	32407	
3693	0	32796	32644	
3694	0	32817	32414	
3695	0	32828	32132	
3696	0	32862	32199	
3697	0	32720	32529	
3698	0	32772	32622	
3699	0	32768	32337	
3700	0	32870	32311	
3701	0	32820	32445	
3702	0	32820	32503	
3703	0	32788	32474	
3704	0	32710	32239	
3705	0	32740	32238	
3706	0	32804	32351	
3707	0	32818	32549	
3708	0	32878	32724	
3709	0	32912	32478	
3710	0	32916	32210	
3711	0	32732	32423	
3712	0	32796	32639	
3713	0	32712	32384	
3714	0	32700	32058	
3715	0	32852	32435	
3716	0	32952	32582	
3717	0	32814	32519	
3718	0	32696	32558	
3719	0	32804	32519	
3720	0	32752	32484	
3721	0	32722	32469	
3722	0	32796	32676	
3723	0	32744	32471	
3724	0	32778	32124	
3725	0	32870	32002	
3726	0	32832	31814	
3727	0	32832	31735	
3728	0	32804	32060	
3729	0	32732	32599	
3730	0	32776	32818	
3731	0	32712	32583	
3732	0	32816	32383	
3733	0	32796	32337	
3734	0	32820	32324	
3735	0	32736	32738	
3736	0	32758	32706	
3737	0	32800	32564	
3738	0	32870	32799	
3739	0	32812	32295	
3740	0	32932	32404	
3741	0	32938	32652	
3742	0	32880	32237	
3743	0	32821	32335	
3744	0	32874	32351	
3745	0	32726	32487	
3746	0	32722	32815	
3747	0	32674	32775	
3748	0	32660	32703	
3749	0	32720	32535	
3750	0	32780	32146	
3751	0	32916	32230	
3752	0	32828	32367	
3753	0	32796	32342	
3754	0	32692	32015	
3755	0	32656	31967	
3756	0	32566	32358	
3757	0	32664	32671	
3758	0	32892	32863	
3759	0	32854	32511	
3760	0	32942	32196	
3761	0	32864	32342	
3762	0	32688	32439	
3763	0	32610	32615	
3764	0	32614	32391	
3765	0	32616	32307	
3766	0	32644	32239	
3767	0	32704	32349	
3768	0	32792	32474	
3769	0	32814	32709	
3770	0	32792	32519	
3771	0	32718	32703	
3772	0	32730	32710	
3773	0	32750	32660	
3774	0	32821	32586	
3775	0	32908	32535	
3776	0	32828	32503	
3777	0	32884	32567	
3778	0	32920	32188	
3779	0	33008	32503	
3780	0	33004	32538	
3781	0	33012	32563	
3782	0	33023	32411	
3783	0	33020	32127	
3784	0	33023	32325	
3785	0	32954	32679	
3786	0	32699	32533	
3787	0	32670	32230	
3788	0	32818	32334	
3789	0	32712	32723	
3790	0	32522	32498	
3791	0	32512	32263	
3792	0	32532	32238	
3793	0	32676	32295	
3794	0	32900	32579	
3795	0	33130	32508	
3796	0	33040	32263	
3797	0	32854	32226	
3798	0	32852	32340	
3799	0	32900	32678	
3800	0	32941	32611	
3801	0	32648	32506	
3802	0	32864	32384	
3803	0	32840	32199	
3804	0	32916	32298	
3805	0	32732	32391	
3806	0	32702	32300	
3807	0	32712	32146	
3808	0	32692	32554	
3809	0	32932	32470	
3810	0	32750	32255	
3811	0	32748	32606	
3812	0	32926	32579	
3813	0	32956	32431	
3814	0	32964	32327	
3815	0	32936	32287	
3816	0	32862	32311	
3817	0	32766	32342	
3818	0	32840	32370	
3819	0	32736	32423	
3820	0	32748	32391	
3821	0	32721	32195	
3822	0	32594	32188	
3823	0	32660	32263	
3824	0	32578	32047	
3825	0	32712	32118	
3826	0	32972	32480	
3827	0	33128	32519	
3828	0	33208	32511	
3829	0	32984	32661	
3830	0	32567	32602	
3831	0	32462	32573	
3832	0	32692	32679	
3833	0	32868	32697	
3834	0	32720	32575	
3835	0	32684	32657	
3836	0	32698	32666	
3837	0	32724	32639	
3838	0	32684	32599	
3839	0	32799	32455	
3840	0	32970	32199	
3841	0	33066	32111	
3842	0	32956	32314	
3843	0	32685	32513	
3844	0	32668	32591	
3845	0	32727	32376	
3846	0	32720	32259	
3847	0	32872	32263	
3848	0	32974	32151	
3849	0	32878	32054	
3850	0	32764	32119	
3851	0	32822	31930	
3852	0	32724	31828	
3853	0	32664	31918	
3854	0	32612	32247	
3855	0	32756	32415	
3856	0	32852	32450	
3857	0	32796	32567	
3858	0	32832	32540	
3859	0	32784	32604	
3860	0	32682	32815	
3861	0	32728	32759	
3862	0	32788	32631	
3863	0	32806	32561	
3864	0	32756	32411	
3865	0	32866	32557	
3866	0	32896	32570	
3867	0	32988	32487	
3868	0	32924	32468	
3869	0	32794	32483	
3870	0	32800	32463	
3871	0	32760	32374	
3872	0	32704	32448	
3873	0	32742	32443	
3874	0	32772	32494	
3875	0	32812	32407	
3876	0	32786	32463	
3877	0	32746	32333	
3878	0	32761	32143	
3879	0	32725	32375	
3880	0	32624	32622	
3881	0	32775	32615	
3882	0	32724	32487	
3883	0	32796	32260	
3884	0	32756	32299	
3885	0	32856	32366	
3886	0	32906	32460	
3887	0	32868	32647	
3888	0	32864	32671	
3889	0	32804	32511	
3890	0	32775	32231	
3891	0	32808	32036	
3892	0	32808	32078	
3893	0	32780	32327	
3894	0	32876	32436	
3895	0	32696	32655	
3896	0	32490	32442	
3897	0	32405	32502	
3898	0	32398	32837	
3899	0	32392	32678	
3900	0	32380	32409	
3901	0	32492	32282	
3902	0	32504	32166	
3903	0	32868	32245	
3904	0	32920	32379	
3905	0	32728	32239	
3906	0	32724	32167	
3907	0	32752	32213	
3908	0	32788	32287	
3909	0	32904	32507	
3910	0	32906	32503	
3911	0	32930	32647	
3912	0	32900	32757	
3913	0	32912	32583	
3914	0	32778	32263	
3915	0	32536	32452	
3916	0	32761	32532	
3917	0	32928	32383	
3918	0	32966	32167	
3919	0	33254	32125	
3920	0	33504	32325	
3921	0	33600	32607	
3922	0	33726	32407	
3923	0	33696	32418	
3924	0	33728	32386	
3925	0	33840	32438	
3926	0	33980	32397	
3927	0	33790	32599	
3928	0	33644	32559	
3929	0	33486	32454	
3930	0	33348	32305	
3931	0	33084	32335	
3932	0	32876	32238	
3933	0	32910	32100	
3934	0	32836	32206	
3935	0	32734	32436	
3936	0	32434	32754	
3937	0	32316	32604	
3938	0	32468	32548	
3939	0	32704	32292	
3940	0	32724	32124	
3941	0	32576	32187	
3942	0	32528	32230	
3943	0	32441	32170	
3944	0	32478	32236	
3945	0	32554	32295	
3946	0	32270	32476	
3947	0	32026	32510	
3948	0	32012	32519	
3949	0	32144	32543	
3950	0	32140	32670	
3951	0	32032	32668	
3952	0	31840	32519	
3953	0	31730	32150	
3954	0	31700	32046	
3955	0	31852	32263	
3956	0	31928	32372	
3957	0	32245	32581	
3958	0	32300	32399	
3959	0	32328	32048	
3960	0	32481	32162	
3961	0	32498	32475	
3962	0	32646	32732	
3963	0	32761	32676	
3964	0	32864	32606	
3965	0	32766	32292	
3966	0	33020	32251	
3967	0	32960	32337	
3968	0	32916	32462	
3969	0	32982	32610	
3970	0	33183	32623	
3971	0	33294	32476	
3972	0	33308	32343	
3973	0	33252	32231	
3974	0	33214	32131	
3975	0	33156	32239	
3976	0	33132	32262	
3977	0	33022	32158	
3978	0	33015	32260	
3979	0	32872	32226	
3980	0	33008	32324	
3981	0	32949	32343	
3982	0	33018	32380	
3983	0	32932	32659	
3984	0	32750	32660	
3985	0	32844	32604	
3986	0	32794	32543	
3987	0	32780	32447	
3988	0	32700	32183	
3989	0	32944	32281	
3990	0	33098	32287	
3991	0	32908	32370	
3992	0	32764	32287	
3993	0	32804	32091	
3994	0	32854	32500	
3995	0	32892	32322	
3996	0	32798	32444	
3997	0	32796	32445	
3998	0	32816	32510	
3999	0	32702	32362	
4000	0	32724	32258	
4001	0	32908	32327	
4002	0	33028	32495	
4003	0	32859	32758	
4004	0	32810	32602	
4005	0	32900	32494	
4006	0	32850	32251	
4007	0	32758	32164	
4008	0	32748	32287	
4009	0	32628	32222	
4010	0	32737	32223	
4011	0	32746	32207	
4012	0	32888	32199	
4013	0	32804	32172	
4014	0	32772	32303	
4015	0	32884	32343	
4016	0	32964	32478	
4017	0	32921	32669	
4018	0	32764	32466	
4019	0	32852	32564	
4020	0	32856	32484	
4021	0	32776	32546	
4022	0	32814	32438	
4023	0	32662	32513	
4024	0	32776	32546	
4025	0	32788	32528	
4026	0	32880	32695	
4027	0	32942	32599	
4028	0	32894	32701	
4029	0	32764	32292	
4030	0	32684	32353	
4031	0	32876	32441	
4032	0	32862	32283	
4033	0	32834	32631	
4034	0	32720	32244	
4035	0	32710	32501	
4036	0	32780	32678	
4037	0	32876	32404	
4038	0	32792	32500	
4039	0	32644	32623	
4040	0	32776	32564	
4041	0	32766	32527	
4042	0	32820	32535	
4043	0	32828	32564	
4044	0	32906	32613	
4045	0	32852	32541	
4046	0	32896	32443	
4047	0	32784	32519	
4048	0	32728	32607	
4049	0	32812	32550	
4050	0	32768	32465	
4051	0	32880	32471	
4052	0	32900	32535	
4053	0	32801	32618	
4054	0	32708	32800	
4055	0	32720	32452	
4056	0	32680	32214	
4057	0	32732	32081	
4058	0	32846	32164	
4059	0	32972	32233	
4060	0	32900	32103	
4061	0	32708	32061	
4062	0	32874	32060	
4063	0	32800	32263	
4064	0	32746	32313	
4065	0	32864	32366	
4066	0	32810	32445	
4067	0	32740	32339	
4068	0	32828	32324	
4069	0	32812	32335	
4070	0	32634	32235	
4071	0	32775	32295	
4072	0	32836	32343	
4073	0	32784	32391	
4074	0	32860	32258	
4075	0	32746	32439	
4076	0	32760	32473	
4077	0	32788	32421	
4078	0	32880	32439	
4079	0	32918	32343	
4080	0	32816	32303	
4081	0	32664	32434	
4082	0	32714	32420	
4083	0	32836	32354	
4084	0	33032	32296	
4085	0	32844	32326	
4086	0	32838	32307	
4087	0	32780	32340	
4088	0	32648	32279	
4089	0	32648	32263	
4090	0	32776	32255	
4091	0	32920	32347	
4092	0	32884	32158	
4093	0	32890	32062	
4094	0	32816	32183	
4095	0	32842	32299	
4096	0	32852	32306	
4097	0	32716	32351	
4098	0	32870	32365	
4099	0	32818	32572	
4100	0	32796	32625	
4101	0	32636	32556	
4102	0	32764	32548	
4103	0	32834	32719	
4104	0	32880	32674	
4105	0	32834	32529	
4106	0	32830	32484	
4107	0	32928	32307	
4108	0	32724	32286	
4109	0	32734	32142	
4110	0	32704	32234	
4111	0	32738	32407	
4112	0	32840	32693	
4113	0	32880	32711	
4114	0	32794	32498	
4115	0	32849	32471	
4116	0	32894	32380	
4117	0	32881	32223	
4118	0	32652	32644	
4119	0	32670	32239	
4120	0	32738	32496	
4121	0	32988	32447	
4122	0	32900	32212	
4123	0	32820	32380	
4124	0	32624	32022	
4125	0	32876	32728	
4126	0	32996	32374	
4127	0	32737	32655	
4128	0	32660	32383	
4129	0	32726	32258	
4130	0	32780	32359	
4131	0	32728	32263	
4132	0	32834	32231	
4133	0	32924	32302	
4134	0	32880	32262	
4135	0	32840	32339	
4136	0	32812	32207	
4137	0	32796	32180	
4138	0	32840	32335	
4139	0	32814	32391	
4140	0	32804	32355	
4141	0	32848	32212	
4142	0	32866	32071	
4143	0	32791	32202	
4144	0	32764	32172	
4145	0	32668	32143	
4146	0	32644	32302	
4147	0	32752	32359	
4148	0	32810	32306	
4149	0	32742	32308	
4150	0	32694	32039	
4151	0	32775	32759	
4152	0	32764	32380	
4153	0	32740	32595	
4154	0	32782	32063	
4155	0	32902	32287	
4156	0	33028	32561	
4157	0	32875	32245	
4158	0	32640	32826	
4159	0	32868	32419	
4160	0	32926	32322	
4161	0	32796	32599	
4162	0	32824	32416	
4163	0	32746	32391	
4164	0	32666	32606	
4165	0	32705	32247	
4166	0	32896	32631	
4167	0	33104	32302	
4168	0	32920	32492	
4169	0	32734	32463	
4170	0	32714	32191	
4171	0	32766	32622	
4172	0	32794	32166	
4173	0	32792	32667	
4174	0	32806	32305	
4175	0	32753	32554	
4176	0	32756	32439	
4177	0	32772	32330	
4178	0	32764	32615	
4179	0	32756	32175	
4180	0	32810	32644	
4181	0	32818	32350	
4182	0	32900	32298	
4183	0	32886	32283	
4184	0	32838	32133	
4185	0	32737	32467	
4186	0	32764	32634	
4187	0	32840	32223	
4188	0	32788	32609	
4189	0	32708	32181	
4190	0	32644	32687	
4191	0	32684	32277	
4192	0	32860	32679	
4193	0	32874	32119	
4194	0	32872	32222	
4195	0	32754	32324	
4196	0	32794	32452	
4197	0	32868	32455	
4198	0	32784	32327	
4199	0	32628	32308	
4200	0	32872	32290	
4201	0	32894	32334	
4202	0	32770	32302	
4203	0	32838	32436	
4204	0	32801	32431	
4205	0	32692	32539	
4206	0	32728	32660	
4207	0	32856	32623	
4208	0	32891	32304	
4209	0	32872	32202	
4210	0	32816	32327	
4211	0	32752	32348	
4212	0	32744	32503	
4213	0	32772	32518	
4214	0	32760	32439	
4215	0	32732	32615	
4216	0	32828	32599	
4217	0	32868	32479	
4218	0	32751	32341	
4219	0	32688	32155	
4220	0	32804	32231	
4221	0	32796	32438	
4222	0	32780	32607	
4223	0	32704	32550	
4224	0	32784	32530	
4225	0	32828	32318	
4226	0	32932	32256	
4227	0	32818	32186	
4228	0	32830	32195	
4229	0	33010	32419	
4230	0	32764	32663	
4231	0	32668	32613	
4232	0	32704	32487	
4233	0	32816	32454	
4234	0	32674	32303	
4235	0	32740	32318	
4236	0	32884	32421	
4237	0	32885	32566	
4238	0	32759	32671	
4239	0	32680	32647	
4240	0	32692	32510	
4241	0	32762	32402	
4242	0	32748	32231	
4243	0	32822	32119	
4244	0	32880	32007	
4245	0	32884	31968	
4246	0	32894	32029	
4247	0	32742	32327	
4248	0	32628	32530	
4249	0	32692	32807	
4250	0	32820	32582	
4251	0	33004	32409	
4252	0	32876	32511	
4253	0	32804	32454	
4254	0	32620	32093	
4255	0	32784	32215	
4256	0	32818	32420	
4257	0	32876	32487	
4258	0	32748	32595	
4259	0	32892	32623	
4260	0	32900	32667	
4261	0	32856	32614	
4262	0	33028	32563	
4263	0	32826	32447	
4264	0	32876	32316	
4265	0	32756	32154	
4266	0	32766	32215	
4267	0	32666	32361	
4268	0	32652	32410	
4269	0	32844	32631	
4270	0	32798	32636	
4271	0	32780	32511	
4272	0	32800	32327	
4273	0	32794	32228	
4274	0	32750	32231	
4275	0	32660	32199	
4276	0	32756	32285	
4277	0	32836	32359	
4278	0	32856	32519	
4279	0	32740	32464	
4280	0	32960	32259	
4281	0	32812	32407	
4282	0	32802	32426	
4283	0	32798	32380	
4284	0	32788	32306	
4285	0	32876	32331	
4286	0	32772	32314	
4287	0	33010	32508	
4288	0	33064	32692	
4289	0	32820	32703	
4290	0	32596	32551	
4291	0	32682	32295	
4292	0	32762	32263	
4293	0	32734	32236	
4294	0	32660	32259	
4295	0	32836	32375	
4296	0	32860	32240	
4297	0	32692	32311	
4298	0	32800	32547	
4299	0	32791	32718	
4300	0	32813	32711	
4301	0	32788	32668	
4302	0	32808	32661	
4303	0	32854	32663	
4304	0	32880	32692	
4305	0	32820	32712	
4306	0	32804	32714	
4307	0	32816	32519	
4308	0	32788	32492	
4309	0	32740	32538	
4310	0	32788	32516	
4311	0	32846	32595	
4312	0	32912	32759	
4313	0	32772	32631	
4314	0	32792	32742	
4315	0	32854	32588	
4316	0	32820	32346	
4317	0	32886	32244	
4318	0	32762	32199	
4319	0	32692	32135	
4320	0	32820	32261	
4321	0	32868	32263	
4322	0	32748	32471	
4323	0	32788	32692	
4324	0	32820	32687	
4325	0	32808	32682	
4326	0	32868	32730	
4327	0	32688	32444	
4328	0	32680	32530	
4329	0	32844	32730	
4330	0	32736	32263	
4331	0	32738	32085	
4332	0	32878	32426	
4333	0	32884	32020	
4334	0	32818	32362	
4335	0	32956	32537	
4336	0	32956	32239	
4337	0	32714	32438	
4338	0	32740	32519	
4339	0	32768	32191	
4340	0	32857	32519	
4341	0	32792	32052	
4342	0	32718	32005	
4343	0	32816	32455	
4344	0	32806	32287	
4345	0	32988	32610	
4346	0	32918	32497	
4347	0	32760	32378	
4348	0	32576	32798	
4349	0	32692	32564	
4350	0	32770	32337	
4351	0	32708	32593	
4352	0	32708	32409	
4353	0	32908	32200	
4354	0	32956	32327	
4355	0	33000	32695	
4356	0	32848	32357	
4357	0	32782	32551	
4358	0	32764	32810	
4359	0	32760	32348	
4360	0	32708	32207	
4361	0	32828	32166	
4362	0	32784	32366	
4363	0	32722	32535	
4364	0	32750	32615	
4365	0	32730	32666	
4366	0	32866	32632	
4367	0	32868	32519	
4368	0	32852	32351	
4369	0	32928	32340	
4370	0	32918	32252	
4371	0	32894	32243	
4372	0	32832	32385	
4373	0	32646	32296	
4374	0	32650	32378	
4375	0	32960	32455	
4376	0	32848	32495	
4377	0	32708	32719	
4378	0	32786	32732	
4379	0	32874	32653	
4380	0	32740	32404	
4381	0	32704	32135	
4382	0	32789	32431	
4383	0	32890	32178	
4384	0	32902	31991	
4385	0	32724	32376	
4386	0	32896	32775	
4387	0	32890	32506	
4388	0	32748	32213	
4389	0	32894	32500	
4390	0	32926	32702	
4391	0	32836	32442	
4392	0	32708	32215	
4393	0	32728	32533	
4394	0	32608	32775	
4395	0	32604	32410	
4396	0	32828	32244	
4397	0	33006	32458	
4398	0	32704	32685	
4399	0	32695	32303	
4400	0	32836	32308	
4401	0	32824	32689	
4402	0	32852	32308	
4403	0	32808	32391	
4404	0	32892	32595	
4405	0	32951	32099	
4406	0	32917	32263	
4407	0	32716	32674	
4408	0	32748	32288	
4409	0	32849	32330	
4410	0	32799	32551	
4411	0	32740	32156	
4412	0	32724	32028	
4413	0	32636	32503	
4414	0	32943	32563	
4415	0	32994	32249	
4416	0	33004	32246	
4417	0	32877	32655	
4418	0	32696	32637	
4419	0	32660	32583	
4420	0	32652	32360	
4421	0	32845	32468	
4422	0	32705	32512	
4423	0	32760	32479	
4424	0	32792	32654	
4425	0	32836	32645	
4426	0	32900	32461	
4427	0	32956	32353	
4428	0	32904	32044	
4429	0	32754	31835	
4430	0	32776	32175	
4431	0	32752	32590	
4432	0	32666	32734	
4433	0	32680	32746	
4434	0	32904	32663	
4435	0	32798	32636	
4436	0	32772	32542	
4437	0	32872	32483	
4438	0	32814	32383	
4439	0	32792	32403	
4440	0	32646	32383	
4441	0	32854	32391	
4442	0	32978	32442	
4443	0	32880	32474	
4444	0	32864	32550	
4445	0	32794	32751	
4446	0	32700	32750	
4447	0	32820	32662	
4448	0	32872	32647	
4449	0	32742	32578	
4450	0	32781	32460	
4451	0	32790	32359	
4452	0	32752	32143	
4453	0	32648	32343	
4454	0	32606	32559	
4455	0	32671	32502	
4456	0	32806	32515	
4457	0	33120	32463	
4458	0	32894	32418	
4459	0	32916	32455	
4460	0	32812	32469	
4461	0	32704	32534	
4462	0	32688	32414	
4463	0	32734	32295	
4464	0	32836	32263	
4465	0	32900	32324	
4466	0	32784	32317	
4467	0	32888	32382	
4468	0	32892	32476	
4469	0	32846	32423	
4470	0	32596	32495	
4471	0	32782	32497	
4472	0	32792	32551	
4473	0	32668	32591	
4474	0	32794	32509	
4475	0	32829	32458	
4476	0	32808	32391	
4477	0	32680	32292	
4478	0	32735	32229	
4479	0	32760	32236	
4480	0	32764	32135	
4481	0	32958	32196	
4482	0	32976	32250	
4483	0	32823	32359	
4484	0	32732	32254	
4485	0	32708	32327	
4486	0	32660	32198	
4487	0	32852	32311	
4488	0	32934	32164	
4489	0	32788	32165	
4490	0	32796	31991	
4491	0	32728	32050	
4492	0	32828	32127	
4493	0	32738	32027	
4494	0	32741	32219	
4495	0	32748	32422	
4496	0	32764	32465	
4497	0	32884	32604	
4498	0	32704	32751	
4499	0	32756	32707	
4500	0	32828	32767	
4501	0	32874	32638	
4502	0	32818	32569	
4503	0	32804	32511	
4504	0	32828	32420	
4505	0	32912	32239	
4506	0	32847	32239	
4507	0	32730	32219	
4508	0	32792	32252	
4509	0	32836	32278	
4510	0	32846	32374	
4511	0	32766	32404	
4512	0	32885	32390	
4513	0	32730	32347	
4514	0	32868	32407	
4515	0	33104	32337	
4516	0	32848	32318	
4517	0	32808	32319	
4518	0	32713	32369	
4519	0	32848	32367	
4520	0	32608	32467	
4521	0	32612	32439	
4522	0	32884	32342	
4523	0	32760	32322	
4524	0	32618	32390	
4525	0	32704	32359	
4526	0	32720	32414	
4527	0	32929	32454	
4528	0	32842	32346	
4529	0	32748	32183	
4530	0	32726	32188	
4531	0	32784	32030	
4532	0	32892	31994	
4533	0	32806	32079	
4534	0	32772	32181	
4535	0	32840	32143	
4536	0	32921	32074	
4537	0	32864	32183	
4538	0	32788	32311	
4539	0	32708	32359	
4540	0	32960	32212	
4541	0	32760	32473	
4542	0	32744	32735	
4543	0	32715	32763	
4544	0	32778	32801	
4545	0	32810	32532	
4546	0	32880	32506	
4547	0	32772	32639	
4548	0	32726	32731	
4549	0	32618	32636	
4550	0	32704	32695	
4551	0	32840	32668	
4552	0	32776	32588	
4553	0	32916	32415	
4554	0	32872	32412	
4555	0	32934	32318	
4556	0	32664	32346	
4557	0	32710	32378	
4558	0	32862	32159	
4559	0	32788	32604	
4560	0	32806	32293	
4561	0	32892	32714	
4562	0	32928	32251	
4563	0	32984	32634	
4564	0	32728	32254	
4565	0	32680	32572	
4566	0	32856	32062	
4567	0	32824	32508	
4568	0	32752	32602	
4569	0	32856	32671	
4570	0	32740	32703	
4571	0	32711	32532	
4572	0	32814	32647	
4573	0	32871	32500	
4574	0	32967	32503	
4575	0	32842	32514	
4576	0	32824	32414	
4577	0	32870	32222	
4578	0	32905	31983	
4579	0	32724	31905	
4580	0	32636	32142	
4581	0	32684	32119	
4582	0	32692	32423	
4583	0	32823	32591	
4584	0	32784	32775	
4585	0	32868	32859	
4586	0	32808	32637	
4587	0	32708	32516	
4588	0	32904	32372	
4589	0	32764	32287	
4590	0	32680	32386	
4591	0	32852	32468	
4592	0	32877	32714	
4593	0	32864	32687	
4594	0	32825	32518	
4595	0	32744	32444	
4596	0	32565	32255	
4597	0	32770	32239	
4598	0	32848	32157	
4599	0	32796	32239	
4600	0	32823	32327	
4601	0	32976	32371	
4602	0	32984	32335	
4603	0	32792	32232	
4604	0	32716	32119	
4605	0	32694	32366	
4606	0	32838	32591	
4607	0	32876	32711	
4608	0	32719	32383	
4609	0	32625	32327	
4610	0	32760	32351	
4611	0	32813	32565	
4612	0	32752	32732	
4613	0	32740	32476	
4614	0	32692	32071	
4615	0	32821	31996	
4616	0	33070	32340	
4617	0	32956	32613	
4618	0	32828	32535	
4619	0	32776	32219	
4620	0	32772	32188	
4621	0	32874	32287	
4622	0	32760	32482	
4623	0	32640	32672	
4624	0	32678	32702	
4625	0	32660	32483	
4626	0	32840	32244	
4627	0	32960	32188	
4628	0	32916	32164	
4629	0	33012	32319	
4630	0	32756	32615	
4631	0	32758	32318	
4632	0	32672	32366	
4633	0	32684	32702	
4634	0	32832	32647	
4635	0	32948	32321	
4636	0	32836	32464	
4637	0	32540	32311	
4638	0	32657	32204	
4639	0	32664	32263	
4640	0	32710	32326	
4641	0	32520	32327	
4642	0	32414	31978	
4643	0	32708	32106	
4644	0	32932	32463	
4645	0	32832	32775	
4646	0	32940	32492	
4647	0	32874	32343	
4648	0	32904	32495	
4649	0	32708	32750	
4650	0	32839	32583	
4651	0	32724	32186	
4652	0	32628	32181	
4653	0	32652	32263	
4654	0	32624	32410	
4655	0	32822	32519	
4656	0	33070	32610	
4657	0	32980	32492	
4658	0	32788	32366	
4659	0	32790	32171	
4660	0	32958	32199	
4661	0	33020	32447	
4662	0	32996	32337	
4663	0	32958	32140	
4664	0	32820	32157	
4665	0	33076	32362	
4666	0	33052	32606	
4667	0	32800	32775	
4668	0	32709	32371	
4669	0	32896	32278	
4670	0	32863	32638	
4671	0	32884	32591	
4672	0	32775	32282	
4673	0	32708	32622	
4674	0	32652	32263	
4675	0	32668	32417	
4676	0	32768	32711	
4677	0	32768	32310	
4678	0	32768	32366	
4679	0	32874	32751	
4680	0	32970	32321	
4681	0	32740	32231	
4682	0	32638	32579	
4683	0	32916	32550	
4684	0	32936	32327	
4685	0	32848	32511	
4686	0	32768	32679	
4687	0	32820	32055	
4688	0	32814	32423	
4689	0	32700	32423	
4690	0	32693	32307	
4691	0	32686	32751	
4692	0	32836	32639	
4693	0	33034	32542	
4694	0	32950	32519	
4695	0	32814	32262	
4696	0	32833	32231	
4697	0	32900	32145	
4698	0	32782	32064	
4699	0	32881	32115	
4700	0	32806	32371	
4701	0	32788	32487	
4702	0	32666	32519	
4703	0	32684	32567	
4704	0	32796	32588	
4705	0	32774	32447	
4706	0	32756	32229	
4707	0	32740	32314	
4708	0	32892	32348	
4709	0	32828	32454	
4710	0	32852	32238	
4711	0	32926	32587	
4712	0	32832	32506	
4713	0	32713	32338	
4714	0	32774	32711	
4715	0	32756	32126	
4716	0	32716	32247	
4717	0	32670	32583	
4718	0	32572	32079	
4719	0	32880	32332	
4720	0	32874	32545	
4721	0	32784	32244	
4722	0	32936	32434	
4723	0	32830	32775	
4724	0	32720	32515	
4725	0	32730	32263	
4726	0	32952	32450	
4727	0	32998	32244	
4728	0	32980	32294	
4729	0	32886	32379	
4730	0	32752	32597	
4731	0	32526	32583	
4732	0	32629	32455	
4733	0	32740	32255	
4734	0	32692	32263	
4735	0	32775	32581	
4736	0	32916	32687	
4737	0	32832	32641	
4738	0	32876	32471	
4739	0	32912	32446	
4740	0	32721	32199	
4741	0	32664	32171	
4742	0	32720	32287	
4743	0	32692	32627	
4744	0	32736	32505	
4745	0	32874	32345	
4746	0	32780	32347	
4747	0	32712	32476	
4748	0	33004	32613	
4749	0	32888	32554	
4750	0	32772	32295	
4751	0	32598	32318	
4752	0	32632	32687	
4753	0	32672	32643	
4754	0	32780	32339	
4755	0	32920	32262	
4756	0	33084	32213	
4757	0	32916	32123	
4758	0	32660	32189	
4759	0	32662	32644	
4760	0	32745	32591	
4761	0	32940	32175	
4762	0	32858	31931	
4763	0	32834	32147	
4764	0	32760	32578	
4765	0	32878	32278	
4766	0	32776	32229	
4767	0	32602	32546	
4768	0	32802	32678	
4769	0	32788	32535	
4770	0	32709	32327	
4771	0	32744	32418	
4772	0	32895	32668	
4773	0	32832	32707	
4774	0	32676	32303	
4775	0	32604	32246	
4776	0	32520	32622	
4777	0	32540	32442	
4778	0	32516	32198	
4779	0	32454	32578	
4780	0	32552	32599	
4781	0	32644	32223	
4782	0	32558	32149	
4783	0	32508	32199	
4784	0	32870	32402	
4785	0	32993	32454	
4786	0	32770	32759	
4787	0	32817	32570	
4788	0	32944	32285	
4789	0	32716	32007	
4790	0	32676	32180	
4791	0	32832	32234	
4792	0	32808	32311	
4793	0	32680	32359	
4794	0	32694	32532	
4795	0	32868	32807	
4796	0	32929	32774	
4797	0	33020	32663	
4798	0	33179	32360	
4799	0	33476	31998	
4800	0	33606	32031	
4801	0	33582	32323	
4802	0	33804	32382	
4803	0	33796	32315	
4804	0	34120	32614	
4805	0	34124	32598	
4806	0	34116	32647	
4807	0	33900	32519	
4808	0	33600	32239	
4809	0	33436	32263	
4810	0	33558	32423	
4811	0	33421	32414	
4812	0	33308	32366	
4813	0	32980	32288	
4814	0	32528	32459	
4815	0	32300	32422	
4816	0	32302	32423	
4817	0	32420	32487	
4818	0	32274	32433	
4819	0	32396	32401	
4820	0	32390	32487	
4821	0	32538	32444	
4822	0	32578	32508	
4823	0	32566	32549	
4824	0	32432	32463	
4825	0	32160	32661	
4826	0	31812	32405	
4827	0	31780	32704	
4828	0	31642	32633	
4829	0	31522	32538	
4830	0	31528	32239	
4831	0	31608	32207	
4832	0	31618	32075	
4833	0	31700	32063	
4834	0	31760	32301	
4835	0	31798	32356	
4836	0	31776	32750	
4837	0	32242	32263	
4838	0	32822	32473	
4839	0	32660	32487	
4840	0	32762	32540	
4841	0	32848	32692	
4842	0	32798	32647	
4843	0	32872	32647	
4844	0	32900	32647	
4845	0	32930	32656	
4846	0	33060	32606	
4847	0	33064	32575	
4848	0	33094	32591	
4849	0	33207	32507	
4850	0	33144	32582	
4851	0	33000	32573	
4852	0	33084	32666	
4853	0	33056	32559	
4854	0	33128	32506	
4855	0	33128	32551	
4856	0	33140	32692	
4857	0	33270	32706	
4858	0	33292	32723	
4859	0	33060	32639	
4860	0	32964	32503	
4861	0	32880	32683	
4862	0	32936	32647	
4863	0	32736	32519	
4864	0	32992	32202	
4865	0	32924	32295	
4866	0	32798	32411	
4867	0	32797	32423	
4868	0	32644	32340	
4869	0	32798	32302	
4870	0	32913	32367	
4871	0	32964	32463	
4872	0	33112	32378	
4873	0	32888	32399	
4874	0	33022	32356	
4875	0	32968	32322	
4876	0	32836	32497	
4877	0	32880	32579	
4878	0	32766	32423	
4879	0	32652	32424	
4880	0	32642	32446	
4881	0	32708	32420	
4882	0	32734	32487	
4883	0	32790	32629	
4884	0	32832	32460	
4885	0	32852	32323	
4886	0	33020	32570	
4887	0	32816	32603	
4888	0	32732	32463	
4889	0	32764	32358	
4890	0	32748	32231	
4891	0	32728	32263	
4892	0	32816	32455	
4893	0	32856	32679	
4894	0	32886	32594	
4895	0	32814	32373	
4896	0	32708	32219	
4897	0	32801	32436	
4898	0	32842	32719	
4899	0	32748	32629	
4900	0	32858	32492	
4901	0	32870	32347	
4902	0	32828	32220	
4903	0	32748	32319	
4904	0	32860	32631	
4905	0	32688	32698	
4906	0	32800	32518	
4907	0	33004	32367	
4908	0	32776	32279	
4909	0	32764	32254	
4910	0	32908	32340	
4911	0	32775	32390	
4912	0	32826	32767	
4913	0	33056	32695	
4914	0	32880	32437	
4915	0	32768	32071	
4916	0	32826	32111	
4917	0	32700	32210	
4918	0	32902	32252	
4919	0	32848	32355	
4920	0	32676	32566	
4921	0	32800	32420	
4922	0	32860	32319	
4923	0	32766	32318	
4924	0	32676	32327	
4925	0	32650	32406	
4926	0	32856	32439	
4927	0	32914	32511	
4928	0	32733	32822	
4929	0	32720	32679	
4930	0	32688	32583	
4931	0	32724	32428	
4932	0	32892	32403	
4933	0	32960	32223	
4934	0	33034	32236	
4935	0	33048	32191	
4936	0	32900	32098	
4937	0	32714	32263	
4938	0	32648	32180	
4939	0	32724	32277	
4940	0	32680	32079	
4941	0	32735	32111	
4942	0	32838	32423	
4943	0	32788	32564	
4944	0	32762	32615	
4945	0	32943	32588	
4946	0	32908	32750	
4947	0	33044	32538	
4948	0	32928	32439	
4949	0	32788	32106	
4950	0	32804	32222	
4951	0	32740	32450	
4952	0	32652	32759	
4953	0	32632	32678	
4954	0	32602	32603	
4955	0	32774	32575	
4956	0	32868	32422	
4957	0	32988	32225	
4958	0	32964	32115	
4959	0	32804	32203	
4960	0	32666	32311	
4961	0	32756	32371	
4962	0	32804	32391	
4963	0	32834	32459	
4964	0	32838	32804	
4965	0	32836	32687	
4966	0	32964	32511	
4967	0	32904	32263	
4968	0	32860	32263	
4969	0	32801	32188	
4970	0	32760	32169	
4971	0	32760	32278	
4972	0	32646	32303	
4973	0	32804	32607	
4974	0	32864	32355	
4975	0	32766	32359	
4976	0	32738	32306	
4977	0	32852	32263	
4978	0	32692	32143	
4979	0	32612	32327	
4980	0	32780	32495	
4981	0	32958	32708	
4982	0	32772	32647	
4983	0	32904	32532	
4984	0	32820	32307	
4985	0	32648	32190	
4986	0	32788	32257	
4987	0	32708	32303	
4988	0	32720	32263	
4989	0	32704	32366	
4990	0	32942	32495	
4991	0	33012	32762	
4992	0	32864	32671	
4993	0	32826	32662	
4994	0	32898	32620	
4995	0	32776	32572	
4996	0	32600	32471	
4997	0	32756	32239	
4998	0	32750	32263	
4999	0	32711	32196	
5000	0	32853	32263	
5001	0	32740	32310	
5002	0	32712	32454	
5003	0	32782	32323	
5004	0	33008	32340	
5005	0	32954	32356	
5006	0	32794	32418	
5007	0	32872	32519	
5008	0	32804	32535	
5009	0	32808	32467	
5010	0	32820	32391	
5011	0	32756	32422	
5012	0	32860	32333	
5013	0	32820	32445	
5014	0	32752	32397	
5015	0	32732	32487	
5016	0	32756	32543	
5017	0	32820	32535	
5018	0	32960	32386	
5019	0	32804	32437	
5020	0	32782	32630	
5021	0	32716	32490	
5022	0	32656	32198	
5023	0	32828	31934	
5024	0	32772	31879	
5025	0	32712	32095	
5026	0	32808	32166	
5027	0	32848	32207	
5028	0	32776	32406	
5029	0	32780	32583	
5030	0	32920	32656	
5031	0	32760	32711	
5032	0	32696	32725	
5033	0	32780	32671	
5034	0	32800	32421	
5035	0	32876	32326	
5036	0	32848	32486	
5037	0	32732	32351	
5038	0	32924	32437	
5039	0	32852	32676	
5040	0	32748	32655	
5041	0	32654	32366	
5042	0	32824	32298	
5043	0	32956	32410	
5044	0	32856	32607	
5045	0	32756	32735	
5046	0	32812	32453	
5047	0	32768	32171	
5048	0	32830	32135	
5049	0	32884	32039	
5050	0	32908	32176	
5051	0	32862	32263	
5052	0	32740	32447	
5053	0	32764	32551	
5054	0	32770	32519	
5055	0	32632	32551	
5056	0	32705	32438	
5057	0	32838	32407	
5058	0	32796	32335	
5059	0	32732	32319	
5060	0	32798	32285	
5061	0	32822	32359	
5062	0	32944	32359	
5063	0	32852	32263	
5064	0	32820	32263	
5065	0	32820	32052	
5066	0	32770	31947	
5067	0	32886	32111	
5068	0	32812	32537	
5069	0	32676	32229	
5070	0	32674	32494	
5071	0	32816	32295	
5072	0	32694	32558	
5073	0	32624	32326	
5074	0	32816	32669	
5075	0	32824	32382	
5076	0	32758	32422	
5077	0	32816	32558	
5078	0	33092	32228	
5079	0	33068	32158	
5080	0	32896	32170	
5081	0	32790	32227	
5082	0	32840	32164	
5083	0	32788	32199	
5084	0	32684	32263	
5085	0	32772	32244	
5086	0	32688	32255	
5087	0	32712	32310	
5088	0	32760	32358	
5089	0	32831	32263	
5090	0	32728	32405	
5091	0	32756	32460	
5092	0	32732	32519	
5093	0	32845	32647	
5094	0	32932	32674	
5095	0	32756	32694	
5096	0	32718	32310	
5097	0	32900	32255	
5098	0	32904	32215	
5099	0	32764	32196	
5100	0	32724	32322	
5101	0	32796	32415	
5102	0	32688	32554	
5103	0	32786	32623	
5104	0	32760	32543	
5105	0	32648	32415	
5106	0	32734	32281	
5107	0	32908	32290	
5108	0	32901	32218	
5109	0	32838	32200	
5110	0	32832	32355	
5111	0	32805	32383	
5112	0	32796	32321	
5113	0	32775	32327	
5114	0	32868	32357	
5115	0	32870	32414	
5116	0	32864	32455	
5117	0	32826	32579	
5118	0	32786	32606	
5119	0	32748	32647	
5120	0	32716	32647	
5121	0	32736	32212	
5122	0	32652	32462	
5123	0	32848	32228	
5124	0	32832	32278	
5125	0	32698	32159	
5126	0	32710	32135	
5127	0	32772	32166	
5128	0	32980	32375	
5129	0	32974	32663	
5130	0	32808	32687	
5131	0	32718	32516	
5132	0	32774	32544	
5133	0	32880	32587	
5134	0	32864	32302	
5135	0	32828	32199	
5136	0	32876	32210	
5137	0	32866	32366	
5138	0	32848	32465	
5139	0	32724	32542	
5140	0	32676	32743	
5141	0	32836	32791	
5142	0	32786	32699	
5143	0	32824	32775	
5144	0	32740	32622	
5145	0	32938	32740	
5146	0	32709	32670	
5147	0	32700	32551	
5148	0	32838	32598	
5149	0	32808	32610	
5150	0	32780	32595	
5151	0	32810	32515	
5152	0	32620	32327	
5153	0	32612	32198	
5154	0	32752	32071	
5155	0	32876	32127	
5156	0	32906	32197	
5157	0	33088	32345	
5158	0	32986	32423	
5159	0	32838	32550	
5160	0	32678	32566	
5161	0	32676	32663	
5162	0	32830	32706	
5163	0	32816	32663	
5164	0	32810	32492	
5165	0	32764	32437	
5166	0	32708	32575	
5167	0	32798	32572	
5168	0	32664	32595	
5169	0	32688	32575	
5170	0	32918	32437	
5171	0	32996	32356	
5172	0	32888	32343	
5173	0	32638	32635	
5174	0	32784	32263	
5175	0	32872	32487	
5176	0	32740	32652	
5177	0	32810	32571	
5178	0	32896	32470	
5179	0	32856	32437	
5180	0	32784	32303	
5181	0	32662	32303	
5182	0	32746	32431	
5183	0	32856	32519	
5184	0	32756	32455	
5185	0	32763	32398	
5186	0	32876	32383	
5187	0	33000	32273	
5188	0	32908	32167	
5189	0	32718	32199	
5190	0	32628	32327	
5191	0	32772	32467	
5192	0	32840	32644	
5193	0	32800	32611	
5194	0	32848	32673	
5195	0	32690	32670	
5196	0	32695	32674	
5197	0	32780	32683	
5198	0	32996	32645	
5199	0	32760	32678	
5200	0	32642	32631	
5201	0	32832	32671	
5202	0	32772	32643	
5203	0	32719	32659	
5204	0	32716	32351	
5205	0	32824	32531	
5206	0	32660	32506	
5207	0	32860	32413	
5208	0	32872	32439	
5209	0	32900	32443	
5210	0	32822	32526	
5211	0	32948	32540	
5212	0	32856	32497	
5213	0	32700	32238	
5214	0	32724	32543	
5215	0	32826	32214	
5216	0	32848	32581	
5217	0	32874	32079	
5218	0	32692	32498	
5219	0	32814	32419	
5220	0	32801	32473	
5221	0	32916	32413	
5222	0	32956	32214	
5223	0	32784	32255	
5224	0	32656	32255	
5225	0	32786	32542	
5226	0	32828	32663	
5227	0	32799	32698	
5228	0	32868	32671	
5229	0	32678	32671	
5230	0	32772	32622	
5231	0	33024	32631	
5232	0	32712	32391	
5233	0	32748	32359	
5234	0	32804	32255	
5235	0	32790	32302	
5236	0	32900	32326	
5237	0	32910	32287	
5238	0	32748	32222	
5239	0	32816	32232	
5240	0	32782	32135	
5241	0	32820	32066	
5242	0	32820	32172	
5243	0	32810	32339	
5244	0	32884	32387	
5245	0	32908	32283	
5246	0	32877	32230	
5247	0	32836	32229	
5248	0	32744	32199	
5249	0	32624	32195	
5250	0	32674	32106	
5251	0	32734	32070	
5252	0	32801	32148	
5253	0	32726	32334	
5254	0	32820	32359	
5255	0	33006	32494	
5256	0	32648	32619	
5257	0	32656	32430	
5258	0	32834	32455	
5259	0	32836	32506	
5260	0	32923	32558	
5261	0	32916	32482	
5262	0	32788	32453	
5263	0	32764	32455	
5264	0	32624	32395	
5265	0	32628	32468	
5266	0	32824	32299	
5267	0	32768	32262	
5268	0	32854	32430	
5269	0	32900	32647	
5270	0	32932	32729	
5271	0	32892	32679	
5272	0	32826	32245	
5273	0	32948	32399	
5274	0	32864	32751	
5275	0	32628	32572	
5276	0	32732	32290	
5277	0	32680	32337	
5278	0	32684	32318	
5279	0	32760	32226	
5280	0	32705	32110	
5281	0	32656	32062	
5282	0	32873	32047	
5283	0	32884	32189	
5284	0	32900	32535	
5285	0	33100	32643	
5286	0	32920	32655	
5287	0	32796	32583	
5288	0	32744	32452	
5289	0	32822	32535	
5290	0	32791	32427	
5291	0	32848	32322	
5292	0	32784	32217	
5293	0	32568	32588	
5294	0	32644	32471	
5295	0	32868	32412	
5296	0	32920	32722	
5297	0	32820	32487	
5298	0	32716	32468	
5299	0	32895	32593	
5300	0	33028	32294	
5301	0	32828	32684	
5302	0	32744	32279	
5303	0	32744	32694	
5304	0	32738	32340	
5305	0	32679	32263	
5306	0	32708	32626	
5307	0	32812	32327	
5308	0	32876	32100	
5309	0	32748	32476	
5310	0	32708	32220	
5311	0	32790	32471	
5312	0	32764	32610	
5313	0	32761	32325	
5314	0	32890	32764	
5315	0	32914	32332	
5316	0	32844	32674	
5317	0	32804	32310	
5318	0	32864	32311	
5319	0	32772	32163	
5320	0	32764	32305	
5321	0	32808	32228	
5322	0	32844	32562	
5323	0	32716	32359	
5324	0	32712	32629	
5325	0	32790	32442	
5326	0	32600	32591	
5327	0	32782	32519	
5328	0	32924	32487	
5329	0	32868	32486	
5330	0	32832	32439	
5331	0	32768	32375	
5332	0	32761	32510	
5333	0	32900	32764	
5334	0	32808	32646	
5335	0	32836	32614	
5336	0	32924	32331	
5337	0	32722	32223	
5338	0	32636	32246	
5339	0	32628	32241	
5340	0	32684	32312	
5341	0	32834	32387	
5342	0	32972	32559	
5343	0	32826	32758	
5344	0	32768	32546	
5345	0	32892	32391	
5346	0	32884	32383	
5347	0	32758	32582	
5348	0	32584	32451	
5349	0	32756	32461	
5350	0	32804	32543	
5351	0	32814	32327	
5352	0	32888	32167	
5353	0	32956	32390	
5354	0	32912	32390	
5355	0	32848	32558	
5356	0	32724	32647	
5357	0	32856	32588	
5358	0	32788	32666	
5359	0	32664	32316	
5360	0	32798	32134	
5361	0	32970	32207	
5362	0	32804	32155	
5363	0	32732	32231	
5364	0	32743	32294	
5365	0	32748	32257	
5366	0	32732	32367	
5367	0	32688	32423	
5368	0	32740	32519	
5369	0	32870	32467	
5370	0	32896	32478	
5371	0	32668	32502	
5372	0	32744	32506	
5373	0	32820	32665	
5374	0	32721	32646	
5375	0	32724	32773	
5376	0	32856	32747	
5377	0	32844	32726	
5378	0	32968	32671	
5379	0	32986	32647	
5380	0	32898	32599	
5381	0	32604	32536	
5382	0	32689	32395	
5383	0	32744	32308	
5384	0	32814	32359	
5385	0	32929	32312	
5386	0	32968	32135	
5387	0	32920	32078	
5388	0	32708	32147	
5389	0	32628	32167	
5390	0	32572	32047	
5391	0	32680	32251	
5392	0	32716	32327	
5393	0	32866	32228	
5394	0	32772	32199	
5395	0	32758	32231	
5396	0	32885	32263	
5397	0	32761	32414	
5398	0	32780	32461	
5399	0	32714	32507	
5400	0	32788	32519	
5401	0	32898	32583	
5402	0	32892	32519	
5403	0	32856	32482	
5404	0	33116	32544	
5405	0	33024	32478	
5406	0	32552	32519	
5407	0	32518	32443	
5408	0	32596	32242	
5409	0	32854	32172	
5410	0	32892	32258	
5411	0	32844	31957	
5412	0	32696	32505	
5413	0	32640	32327	
5414	0	32768	32452	
5415	0	32808	32331	
5416	0	32840	32568	
5417	0	32900	32382	
5418	0	32801	32391	
5419	0	32870	32590	
5420	0	32874	32359	
5421	0	32860	32515	
5422	0	32800	32726	
5423	0	32782	32345	
5424	0	32834	32327	
5425	0	32916	32537	
5426	0	32748	32383	
5427	0	32758	32455	
5428	0	32752	32284	
5429	0	32736	32107	
5430	0	32718	32174	
5431	0	32846	32358	
5432	0	32872	32463	
5433	0	32896	32541	
5434	0	32676	32495	
5435	0	32740	32442	
5436	0	32835	32303	
5437	0	32788	32174	
5438	0	32710	32543	
5439	0	32837	32676	
5440	0	32997	32759	
5441	0	32812	32700	
5442	0	32772	32679	
5443	0	32706	32542	
5444	0	32794	32547	
5445	0	32712	32630	
5446	0	32900	32655	
5447	0	32878	32620	
5448	0	32836	32572	
5449	0	32897	32474	
5450	0	32932	32383	
5451	0	32696	32350	
5452	0	32732	32319	
5453	0	32792	32244	
5454	0	32781	32337	
5455	0	32612	32615	
5456	0	32756	32583	
5457	0	32896	32476	
5458	0	32804	32471	
5459	0	32708	32583	
5460	0	32778	32668	
5461	0	32920	32758	
5462	0	32808	32727	
5463	0	32764	32660	
5464	0	32790	32430	
5465	0	32760	32255	
5466	0	32897	32243	
5467	0	32775	32236	
5468	0	32840	32260	
5469	0	32988	32315	
5470	0	32812	32473	
5471	0	32678	32639	
5472	0	32612	32689	
5473	0	32748	32559	
5474	0	32848	32519	
5475	0	32852	32391	
5476	0	32850	32279	
5477	0	32848	32347	
5478	0	32744	32211	
5479	0	32666	32212	
5480	0	32730	32623	
5481	0	32842	32110	
5482	0	32908	32578	
5483	0	32774	32327	
5484	0	32788	32396	
5485	0	32826	32469	
5486	0	32788	32419	
5487	0	32730	32325	
5488	0	32852	32564	
5489	0	32844	32643	
5490	0	32990	32646	
5491	0	32810	32474	
5492	0	32692	32399	
5493	0	32736	32286	
5494	0	32820	32212	
5495	0	32760	32151	
5496	0	32860	32341	
5497	0	33040	32367	
5498	0	32942	32451	
5499	0	32830	32358	
5500	0	32792	32341	
5501	0	32652	32295	
5502	0	32714	32253	
5503	0	32764	32279	
5504	0	32588	32116	
5505	0	32472	32228	
5506	0	32576	32339	
5507	0	32666	32207	
5508	0	32788	32071	
5509	0	32740	32175	
5510	0	32890	32391	
5511	0	32596	32468	
5512	0	32775	32215	
5513	0	32864	32279	
5514	0	32760	32322	
5515	0	32634	32270	
5516	0	32556	32439	
5517	0	32684	32726	
5518	0	32860	32631	
5519	0	32884	32610	
5520	0	32874	32455	
5521	0	33098	32519	
5522	0	32804	32351	
5523	0	32898	32391	
5524	0	32984	32317	
5525	0	32900	32426	
5526	0	32916	32619	
5527	0	33110	32750	
5528	0	33068	32687	
5529	0	32956	32590	
5530	0	32910	32468	
5531	0	32920	32391	
5532	0	32808	32590	
5533	0	32936	32439	
5534	0	32894	32357	
5535	0	32732	32319	
5536	0	32548	32364	
5537	0	32644	32426	
5538	0	32700	32409	
5539	0	32647	32311	
5540	0	32706	32210	
5541	0	32612	32250	
5542	0	32768	32389	
5543	0	32820	32578	
5544	0	32952	32682	
5545	0	32928	32722	
5546	0	32972	32487	
5547	0	32896	32362	
5548	0	32796	32263	
5549	0	32797	32119	
5550	0	32852	32228	
5551	0	32864	32385	
5552	0	32846	32421	
5553	0	32909	32455	
5554	0	32854	32492	
5555	0	32812	32551	
5556	0	32724	32599	
5557	0	32708	32486	
5558	0	32726	32612	
5559	0	32801	32684	
5560	0	32866	32719	
5561	0	32850	32538	
5562	0	32834	32373	
5563	0	32780	32173	
5564	0	32900	32021	
5565	0	32901	32172	
5566	0	32780	32150	
5567	0	32722	32103	
5568	0	33004	32190	
5569	0	32852	32311	
5570	0	32728	32310	
5571	0	32680	32327	
5572	0	32764	32340	
5573	0	32916	32487	
5574	0	32696	32564	
5575	0	32788	32614	
5576	0	32796	32503	
5577	0	32777	32487	
5578	0	32702	32461	
5579	0	32816	32476	
5580	0	32744	32412	
5581	0	32622	32287	
5582	0	32672	32247	
5583	0	32736	32295	
5584	0	32884	32327	
5585	0	32940	32414	
5586	0	33036	32615	
5587	0	32918	32430	
5588	0	32801	32467	
5589	0	32668	32385	
5590	0	32767	32455	
5591	0	32798	32516	
5592	0	32729	32413	
5593	0	32642	32570	
5594	0	32780	32426	
5595	0	32775	32244	
5596	0	32820	32479	
5597	0	32800	32318	
5598	0	32701	32199	
5599	0	32812	32319	
5600	0	32958	32610	
5601	0	32760	32799	
5602	0	32758	32599	
5603	0	32780	32391	
5604	0	32772	32305	
5605	0	32792	32237	
5606	0	32684	32167	
5607	0	32676	32155	
5608	0	32688	31958	
5609	0	32580	31778	
5610	0	32840	31975	
5611	0	33140	32223	
5612	0	32933	32263	
5613	0	32976	32223	
5614	0	32804	32284	
5615	0	32788	32255	
5616	0	32698	32332	
5617	0	32672	32279	
5618	0	32716	32423	
5619	0	32636	32494	
5620	0	32836	32463	
5621	0	32954	32598	
5622	0	32842	32661	
5623	0	32736	32668	
5624	0	32668	32717	
5625	0	32696	32566	
5626	0	32770	32602	
5627	0	32894	32487	
5628	0	32978	32447	
5629	0	32847	32150	
5630	0	32792	31874	
5631	0	32800	32071	
5632	0	32804	32428	
5633	0	32652	32470	
5634	0	32826	32480	
5635	0	32748	32686	
5636	0	32728	32507	
5637	0	32790	32463	
5638	0	32906	32439	
5639	0	32802	32170	
5640	0	32832	31989	
5641	0	32652	31951	
5642	0	32444	31954	
5643	0	32433	32213	
5644	0	32282	32311	
5645	0	32464	32339	
5646	0	32710	32427	
5647	0	32648	32500	
5648	0	32652	32460	
5649	0	32804	32436	
5650	0	32642	32474	
5651	0	32496	32439	
5652	0	32636	32502	
5653	0	32721	32414	
5654	0	32870	32558	
5655	0	32964	32132	
5656	0	33052	32561	
5657	0	33012	32286	
5658	0	32940	32404	
5659	0	32618	32431	
5660	0	32550	32131	
5661	0	32616	32501	
5662	0	32700	32535	
5663	0	33010	32716	
5664	0	33172	32664	
5665	0	33548	32705	
5666	0	33812	32699	
5667	0	33780	32647	
5668	0	33816	32476	
5669	0	33874	32391	
5670	0	33897	32160	
5671	0	34092	32071	
5672	0	34168	32069	
5673	0	33976	32061	
5674	0	33704	31983	
5675	0	33636	32071	
5676	0	33214	32244	
5677	0	32808	32364	
5678	0	32830	32354	
5679	0	32714	32391	
5680	0	32616	32439	
5681	0	32440	32343	
5682	0	32190	32193	
5683	0	32356	32058	
5684	0	32453	32145	
5685	0	32576	32154	
5686	0	32678	32036	
5687	0	32600	31906	
5688	0	32776	31981	
5689	0	32676	32033	
5690	0	32396	32211	
5691	0	32192	32221	
5692	0	31926	32343	
5693	0	31728	32295	
5694	0	31577	32183	
5695	0	31648	32399	
5696	0	31544	32622	
5697	0	31572	32751	
5698	0	31718	32584	
5699	0	31712	32513	
5700	0	31676	32423	
5701	0	31942	32433	
5702	0	32193	32566	
5703	0	32348	32644	
5704	0	32458	32679	
5705	0	32484	32687	
5706	0	32724	32577	
5707	0	33060	32511	
5708	0	32744	32412	
5709	0	32820	32371	
5710	0	33056	32253	
5711	0	33176	32230	
5712	0	33056	32245	
5713	0	33130	32437	
5714	0	33020	32599	
5715	0	33028	32625	
5716	0	33218	32554	
5717	0	33143	32352	
5718	0	32868	32258	
5719	0	33022	32263	
5720	0	33426	32358	
5721	0	33416	32647	
5722	0	32990	32775	
5723	0	32855	32550	
5724	0	32920	32194	
5725	0	32984	31917	
5726	0	32954	32106	
