# OpenSignals Text File Format. Version 1
# {"00:07:80:4B:3C:23": {"position": 0, "device": "biosignalsplux", "device name": "00:07:80:4B:3C:23", "device connection": "BTH00:07:80:4B:3C:23", "sampling rate": 1000, "resolution": [16, 16], "firmware version": 776, "comments": "", "keywords": "", "mode": 0, "sync interval": 2, "date": "2024-9-26", "time": "11:37:1.721", "channels": [5, 7], "sensor": ["EMG", "EMG"], "label": ["CH5", "CH7"], "column": ["nSeq", "DI", "CH5", "CH7"], "special": [{"SpO2": [80, 40, 5, 4, 3, 3]}, {"SpO2": [80, 40, 5, 4, 3, 3]}, {"SpO2": [80, 40, 5, 4, 3, 3]}, {"SpO2": [80, 40, 5, 4, 3, 3]}, {"SpO2": [80, 40, 5, 4, 3, 3]}, {"SpO2": [80, 40, 5, 4, 3, 3]}, {"SpO2": [80, 40, 5, 4, 3, 3]}, {"SpO2": [80, 40, 5, 4, 3, 3]}], "digital IO": [0, 1], "sleeve color": ["gray", "brown"]}}
# EndOfHeader
0	0	32773	33192	
1	0	32804	33026	
2	0	32900	32622	
3	0	32820	31979	
4	0	32806	32459	
5	0	32768	31970	
6	0	32824	31828	
7	0	32804	32414	
8	0	32758	32350	
9	0	32736	32506	
10	0	32742	32343	
11	0	32832	32180	
12	0	32792	32210	
13	0	32860	32788	
14	0	32816	32860	
15	0	32864	32327	
16	0	32874	32076	
17	0	32848	31927	
18	0	32762	31989	
19	0	32817	33226	
20	0	32828	33414	
21	0	32824	32895	
22	0	32831	32167	
23	0	32808	32687	
24	0	32844	32709	
25	0	32848	32372	
26	0	32764	31873	
27	0	32775	31568	
28	0	32802	31027	
29	0	32828	31623	
30	0	32876	32483	
31	0	32774	33139	
32	0	32794	33572	
33	0	32732	33520	
34	0	32720	32191	
35	0	32764	31898	
36	0	32776	31824	
37	0	32816	32135	
38	0	32804	33217	
39	0	32800	33063	
40	0	32808	32852	
41	0	32751	32820	
42	0	32688	32746	
43	0	32828	32465	
44	0	32736	32199	
45	0	32770	31847	
46	0	32782	32066	
47	0	32830	32490	
48	0	32884	32499	
49	0	32812	32231	
50	0	32764	32295	
51	0	32788	32507	
52	0	32768	31551	
53	0	32836	31870	
54	0	32722	31249	
55	0	32676	31694	
56	0	32718	33139	
57	0	32830	33495	
58	0	32804	33924	
59	0	32772	33310	
60	0	32780	32276	
61	0	32775	32473	
62	0	32714	31879	
63	0	32824	31775	
64	0	32858	32178	
65	0	32738	32026	
66	0	32756	32431	
67	0	32714	33155	
68	0	32758	32167	
69	0	32768	32092	
70	0	32780	32823	
71	0	32760	32647	
72	0	32760	32209	
73	0	32748	32002	
74	0	32788	32537	
75	0	32790	32124	
76	0	32775	32416	
77	0	32748	32545	
78	0	32780	32350	
79	0	32790	32218	
80	0	32824	32159	
81	0	32724	32466	
82	0	32754	32730	
83	0	32775	32570	
84	0	32752	32606	
85	0	32860	32300	
86	0	32834	32263	
87	0	32896	32388	
88	0	32814	32260	
89	0	32800	32071	
90	0	32844	31879	
91	0	32712	32005	
92	0	32708	32455	
93	0	32820	32756	
94	0	32792	32741	
95	0	32824	32769	
96	0	32824	31671	
97	0	32832	32775	
98	0	32760	33727	
99	0	32756	32998	
100	0	32775	32663	
101	0	32824	32774	
102	0	32720	32519	
103	0	32740	32315	
104	0	32880	32543	
105	0	32868	32446	
106	0	32848	32335	
107	0	32900	32708	
108	0	32896	32178	
109	0	32693	31791	
110	0	32782	32348	
111	0	32776	32183	
112	0	32798	31794	
113	0	32687	32342	
114	0	32824	32348	
115	0	32838	31879	
116	0	32780	32503	
117	0	32744	32557	
118	0	32796	32498	
119	0	32828	32443	
120	0	32708	32717	
121	0	32824	32154	
122	0	32820	31623	
123	0	32824	32065	
124	0	32896	32535	
125	0	32948	32494	
126	0	32990	32615	
127	0	33008	32978	
128	0	32772	32738	
129	0	32840	32007	
130	0	32733	31790	
131	0	32720	31879	
132	0	32796	32506	
133	0	32848	33927	
134	0	32756	33154	
135	0	32888	32002	
136	0	32804	32174	
137	0	32762	32367	
138	0	32736	32023	
139	0	32893	32127	
140	0	32815	32611	
141	0	32796	32668	
142	0	32828	31849	
143	0	32832	32378	
144	0	32868	33095	
145	0	32688	33147	
146	0	32682	33215	
147	0	32780	32527	
148	0	32784	32407	
149	0	32738	32733	
150	0	32789	32686	
151	0	32786	32095	
152	0	32714	32463	
153	0	32652	32465	
154	0	32489	31487	
155	0	32578	31726	
156	0	32612	32261	
157	0	32608	32235	
158	0	32684	32231	
159	0	32624	31778	
160	0	32657	31795	
161	0	32684	33066	
162	0	32734	33799	
163	0	32886	32463	
164	0	32881	31888	
165	0	32912	32071	
166	0	32852	33031	
167	0	32814	33268	
168	0	32878	32354	
169	0	32740	32511	
170	0	32844	32807	
171	0	32788	32684	
172	0	32884	32212	
173	0	32964	31902	
174	0	32761	31482	
175	0	32600	31934	
176	0	32524	32317	
177	0	32674	32335	
178	0	32908	32303	
179	0	32954	32241	
180	0	33016	32529	
181	0	32950	32148	
182	0	32784	31861	
183	0	32687	31901	
184	0	32616	32934	
185	0	32664	33267	
186	0	32809	32658	
187	0	32964	32562	
188	0	33092	33108	
189	0	33214	32775	
190	0	33279	32454	
191	0	33308	32303	
192	0	33260	32295	
193	0	33100	32582	
194	0	33028	32430	
195	0	32766	31663	
196	0	32694	31751	
197	0	32696	32572	
198	0	32641	31743	
199	0	32688	32046	
200	0	32768	32868	
201	0	32700	32775	
202	0	32654	32622	
203	0	32800	32679	
204	0	32824	32327	
205	0	32934	32135	
206	0	32864	32148	
207	0	32852	32263	
208	0	32876	32519	
209	0	32856	32295	
210	0	32846	32559	
211	0	32894	32756	
212	0	32679	32519	
213	0	32804	32758	
214	0	32774	33182	
215	0	32832	32655	
216	0	32836	31919	
217	0	32866	32314	
218	0	32660	32295	
219	0	32732	32319	
220	0	32896	32298	
221	0	32750	32015	
222	0	32720	32416	
223	0	32908	32762	
224	0	32764	32420	
225	0	32630	32153	
226	0	32812	32674	
227	0	32800	32870	
228	0	32828	32135	
229	0	32792	31652	
230	0	32776	31791	
231	0	32830	32758	
232	0	32880	32368	
233	0	32846	32060	
234	0	32878	33039	
235	0	32788	31986	
236	0	32724	32143	
237	0	32674	33726	
238	0	32865	32942	
239	0	32808	32641	
240	0	32758	32231	
241	0	32712	31814	
242	0	32632	32455	
243	0	32712	32757	
244	0	32712	32634	
245	0	32696	32671	
246	0	32726	32703	
247	0	32728	32311	
248	0	32722	31879	
249	0	32780	31749	
250	0	32724	32478	
251	0	32604	32548	
252	0	32716	32543	
253	0	32800	32716	
254	0	32828	32916	
255	0	32980	32740	
256	0	32892	32327	
257	0	32755	31839	
258	0	32868	31503	
259	0	32748	31844	
260	0	32818	32599	
261	0	32792	33414	
262	0	32774	33279	
263	0	32796	32764	
264	0	32788	32483	
265	0	32772	32081	
266	0	32748	32055	
267	0	32764	31943	
268	0	32765	32325	
269	0	32856	32518	
270	0	32706	32862	
271	0	32716	32542	
272	0	32812	32287	
273	0	32848	32036	
274	0	32846	32118	
275	0	32728	32583	
276	0	32836	32640	
277	0	32820	32555	
278	0	32764	32420	
279	0	32812	32383	
280	0	32815	32091	
281	0	32838	32670	
282	0	32772	31914	
283	0	32770	32253	
284	0	32825	31473	
285	0	32794	32823	
286	0	32780	33232	
287	0	32708	33052	
288	0	32784	32263	
289	0	32612	31671	
290	0	32612	31823	
291	0	32456	32986	
292	0	32375	32506	
293	0	32274	31895	
294	0	32126	32978	
295	0	32064	33333	
296	0	32106	33052	
297	0	31970	32479	
298	0	31917	32494	
299	0	31742	32484	
300	0	31834	32295	
301	0	31846	31748	
302	0	31956	32547	
303	0	31844	32743	
304	0	31926	32291	
305	0	32060	32379	
306	0	32500	32506	
307	0	33016	32204	
308	0	33340	31642	
309	0	33688	31970	
310	0	33934	32757	
311	0	33980	32550	
312	0	34216	32071	
313	0	34380	32263	
314	0	34292	32535	
315	0	34288	32341	
316	0	34056	32026	
317	0	34741	32293	
318	0	35178	32430	
319	0	35296	32796	
320	0	35092	32599	
321	0	34756	32415	
322	0	34916	32847	
323	0	35316	32684	
324	0	35790	32485	
325	0	35892	32764	
326	0	35704	32495	
327	0	35036	32732	
328	0	34004	32580	
329	0	32958	31687	
330	0	32298	31992	
331	0	31556	32741	
332	0	31100	32811	
333	0	30770	32430	
334	0	30706	32727	
335	0	31096	32722	
336	0	31144	31987	
337	0	31232	32447	
338	0	31012	32246	
339	0	30976	32038	
340	0	31148	32490	
341	0	31282	32693	
342	0	31450	32622	
343	0	31368	32204	
344	0	31140	32482	
345	0	31174	32473	
346	0	31118	32799	
347	0	31000	32445	
348	0	30958	32022	
349	0	30893	31956	
350	0	31004	32325	
351	0	31156	32495	
352	0	31326	32730	
353	0	31578	32365	
354	0	31918	32172	
355	0	32214	31859	
356	0	32600	32191	
357	0	32910	32231	
358	0	33012	32948	
359	0	33184	33109	
360	0	33408	32659	
361	0	33676	32196	
362	0	33724	31914	
363	0	33678	31786	
364	0	33762	31983	
365	0	33744	31968	
366	0	33653	32244	
367	0	33468	32847	
368	0	33416	32850	
369	0	33432	32224	
370	0	33384	32323	
371	0	33358	33487	
372	0	33216	32980	
373	0	33126	31892	
374	0	33014	32234	
375	0	33028	32035	
376	0	33076	31995	
377	0	33024	33146	
378	0	32933	30821	
379	0	32948	31801	
380	0	32916	33552	
381	0	32862	32854	
382	0	32828	31786	
383	0	32908	32861	
384	0	32944	32927	
385	0	32864	32487	
386	0	32960	33103	
387	0	32752	32902	
388	0	32848	32451	
389	0	32864	32238	
390	0	32844	31924	
391	0	32844	31399	
392	0	32852	31815	
393	0	32886	32519	
394	0	32862	32692	
395	0	32800	32391	
396	0	32700	32515	
397	0	32768	32855	
398	0	32817	32775	
399	0	32904	32364	
400	0	32842	32230	
401	0	32884	32454	
402	0	32878	32334	
403	0	32730	32540	
404	0	32800	32810	
405	0	32826	32661	
406	0	32784	32303	
407	0	32770	32103	
408	0	32710	32027	
409	0	32782	32124	
410	0	32682	32122	
411	0	32836	32067	
412	0	32908	32726	
413	0	32752	32846	
414	0	32648	32868	
415	0	32822	32716	
416	0	32796	32583	
417	0	32798	32436	
418	0	32832	32423	
419	0	32884	32234	
420	0	32868	32467	
421	0	32792	32363	
422	0	32764	32588	
423	0	32820	32255	
424	0	32806	32020	
425	0	32762	31988	
426	0	32822	32617	
427	0	32748	32943	
428	0	32880	32855	
429	0	32832	32378	
430	0	32764	31895	
431	0	32808	32021	
432	0	32800	32317	
433	0	32806	31978	
434	0	32864	32005	
435	0	32801	32454	
436	0	32780	32463	
437	0	32756	32489	
438	0	32712	32580	
439	0	32744	32795	
440	0	32752	32991	
441	0	32742	32541	
442	0	32848	32108	
443	0	32834	32047	
444	0	32806	32494	
445	0	32848	33879	
446	0	32912	33558	
447	0	32808	32503	
448	0	32820	32163	
449	0	32796	32151	
450	0	32832	32260	
451	0	32792	31924	
452	0	32848	32255	
453	0	32761	31392	
454	0	32826	32830	
455	0	32696	32646	
456	0	32696	32476	
457	0	32734	33311	
458	0	32720	33269	
459	0	32808	32751	
460	0	32904	32687	
461	0	32856	32187	
462	0	32856	32199	
463	0	32654	31558	
464	0	32764	32135	
465	0	32770	31805	
466	0	32736	32335	
467	0	32806	32740	
468	0	32836	32467	
469	0	32854	32546	
470	0	32694	33159	
471	0	32900	32839	
472	0	32855	32125	
473	0	32780	31086	
474	0	32884	32258	
475	0	32920	33167	
476	0	32912	32252	
477	0	32884	32965	
478	0	32854	32628	
479	0	32708	32197	
480	0	32852	32236	
481	0	32724	33055	
482	0	32684	33126	
483	0	32860	32327	
484	0	32760	32390	
485	0	32775	32399	
486	0	32778	32366	
487	0	32756	32416	
488	0	32792	32215	
489	0	32775	32646	
490	0	32746	32246	
491	0	32688	32563	
492	0	32732	31935	
493	0	32708	32501	
494	0	32816	32170	
495	0	32780	32612	
496	0	32734	31988	
497	0	32756	32724	
498	0	32810	32343	
499	0	32846	32174	
500	0	32938	31740	
501	0	32920	32325	
502	0	32784	32532	
503	0	32816	32206	
504	0	32824	31779	
505	0	32902	32487	
506	0	32834	33402	
507	0	32868	32767	
508	0	32824	32733	
509	0	32822	32794	
510	0	32844	32947	
511	0	32804	32586	
512	0	32728	32103	
513	0	32672	32693	
514	0	32752	32347	
515	0	32868	32343	
516	0	32750	32023	
517	0	32780	31810	
518	0	32888	32775	
519	0	32964	32567	
520	0	32916	32876	
521	0	32804	32695	
522	0	32740	31860	
523	0	32798	32316	
524	0	32825	32799	
525	0	32844	32564	
526	0	32796	31836	
527	0	32825	31862	
528	0	32856	31742	
529	0	32846	32124	
530	0	32746	32342	
531	0	32714	33135	
532	0	32826	32759	
533	0	32760	32426	
534	0	32840	32658	
535	0	32864	32391	
536	0	32763	32106	
537	0	32864	32263	
538	0	32808	32156	
539	0	32886	32199	
540	0	32919	32661	
541	0	32916	32678	
542	0	32856	32828	
543	0	32920	32391	
544	0	32924	32034	
545	0	32816	31836	
546	0	32881	32446	
547	0	32872	33196	
548	0	32716	31751	
549	0	32830	32244	
550	0	32884	32734	
551	0	32796	31941	
552	0	32834	31834	
553	0	32855	34007	
554	0	32780	33812	
555	0	32934	31548	
556	0	32855	32174	
557	0	32860	32596	
558	0	32846	32236	
559	0	32615	31891	
560	0	32832	32439	
561	0	32850	32939	
562	0	32828	32423	
563	0	32794	32263	
564	0	32704	32282	
565	0	32876	32183	
566	0	32848	32775	
567	0	32740	32546	
568	0	32832	32039	
569	0	32800	32291	
570	0	32830	32222	
571	0	32820	32148	
572	0	32944	32291	
573	0	32845	32195	
574	0	32788	32133	
575	0	32860	32716	
576	0	32756	33274	
577	0	32800	32511	
578	0	32860	32222	
579	0	32904	32118	
580	0	32836	32770	
581	0	32816	32963	
582	0	32789	32723	
583	0	32748	32359	
584	0	32720	31839	
585	0	32846	31820	
586	0	32708	32231	
587	0	32788	32323	
588	0	32636	32241	
589	0	32692	32098	
590	0	32744	32540	
591	0	32749	33492	
592	0	32724	33111	
593	0	32784	32855	
594	0	32826	32428	
595	0	32770	32404	
596	0	32764	32007	
597	0	32852	31914	
598	0	32782	31807	
599	0	32686	31857	
600	0	32712	31975	
601	0	32772	32186	
602	0	32820	32412	
603	0	32801	32945	
604	0	32832	32535	
605	0	32863	32751	
606	0	32836	32895	
607	0	32800	32386	
608	0	32788	32292	
609	0	32806	32310	
610	0	32796	32367	
611	0	32798	32468	
612	0	32782	32604	
613	0	32788	32978	
614	0	32944	32897	
615	0	32864	32595	
616	0	32704	32519	
617	0	32812	32563	
618	0	32668	32428	
619	0	32698	32468	
620	0	32666	32026	
621	0	32640	31654	
622	0	32684	31806	
623	0	32660	32228	
624	0	32704	32647	
625	0	32730	32247	
626	0	32860	31906	
627	0	32840	31924	
628	0	32856	32799	
629	0	32799	32868	
630	0	32810	31951	
631	0	32854	31700	
632	0	32910	32924	
633	0	32798	33582	
634	0	32724	33111	
635	0	32774	32487	
636	0	32812	31311	
637	0	32756	32067	
638	0	32860	32919	
639	0	32648	32959	
640	0	32752	33001	
641	0	32688	32735	
642	0	32676	32446	
643	0	32768	32120	
644	0	32832	32442	
645	0	32908	32567	
646	0	32830	32455	
647	0	32876	32155	
648	0	32922	31932	
649	0	32849	31811	
650	0	32808	32297	
651	0	32650	32364	
652	0	32896	32383	
653	0	32856	32047	
654	0	32772	32388	
655	0	32854	33008	
656	0	32840	33018	
657	0	32772	32634	
658	0	32820	32171	
659	0	32764	32119	
660	0	32838	32199	
661	0	32806	32054	
662	0	32838	32478	
663	0	32805	32740	
664	0	32782	32872	
665	0	32892	32708	
666	0	32815	32731	
667	0	32832	32756	
668	0	32766	32254	
669	0	32834	32231	
670	0	32796	32158	
671	0	32756	32102	
672	0	32808	32204	
673	0	32806	32375	
674	0	32824	32579	
675	0	32790	32775	
676	0	32828	32657	
677	0	32848	32672	
678	0	32840	32583	
679	0	32780	32367	
680	0	32736	31445	
681	0	32796	32335	
682	0	32807	32805	
683	0	32728	32927	
684	0	32750	32346	
685	0	32780	32084	
686	0	32796	32127	
687	0	32824	32018	
688	0	32820	32404	
689	0	32824	32823	
690	0	32775	32591	
691	0	32913	32360	
692	0	32784	32298	
693	0	32668	31721	
694	0	32648	31878	
695	0	32578	32852	
696	0	32564	32299	
697	0	32676	32716	
698	0	32600	33132	
699	0	32592	32743	
700	0	32564	32488	
701	0	32736	32482	
702	0	32742	31686	
703	0	32800	31838	
704	0	32836	32610	
705	0	32878	32719	
706	0	32822	32647	
707	0	32884	32618	
708	0	32848	31903	
709	0	32832	32027	
710	0	32764	32535	
711	0	32848	31876	
712	0	32854	32302	
713	0	32892	32967	
714	0	32834	32804	
715	0	32919	32018	
716	0	32645	31975	
717	0	32612	32692	
718	0	32791	32594	
719	0	32868	32295	
720	0	32984	31855	
721	0	33070	31674	
722	0	32864	33057	
723	0	32761	34263	
724	0	32542	33751	
725	0	32676	33005	
726	0	32676	32199	
727	0	32936	31788	
728	0	33005	31584	
729	0	33147	31815	
730	0	33218	31918	
731	0	33241	32726	
732	0	33250	32465	
733	0	33100	32711	
734	0	33022	32309	
735	0	32900	32861	
736	0	32887	33124	
737	0	32761	32756	
738	0	32698	32076	
739	0	32726	31838	
740	0	32692	32383	
741	0	32726	32471	
742	0	32764	32102	
743	0	32885	32551	
744	0	32868	32346	
745	0	32860	32411	
746	0	32852	31772	
747	0	32806	31599	
748	0	32894	32506	
749	0	32804	32878	
750	0	32844	33118	
751	0	32852	33101	
752	0	32900	32828	
753	0	32808	32320	
754	0	32792	32590	
755	0	32774	32533	
756	0	32736	32423	
757	0	32720	32730	
758	0	32692	32724	
759	0	32816	32354	
760	0	32848	32174	
761	0	32868	32703	
762	0	32828	32343	
763	0	32799	32070	
764	0	32846	32252	
765	0	32738	31663	
766	0	32676	31231	
767	0	32788	31135	
768	0	32836	31536	
769	0	32794	32478	
770	0	32743	33470	
771	0	32788	32866	
772	0	32789	32934	
773	0	32825	32418	
774	0	32746	32230	
775	0	32750	33015	
776	0	32768	33309	
777	0	32856	32507	
778	0	32764	31378	
779	0	32898	32186	
780	0	32780	32495	
781	0	32728	32448	
782	0	32756	32194	
783	0	32808	32634	
784	0	32752	32486	
785	0	32764	32439	
786	0	32812	32350	
787	0	32816	32327	
788	0	32814	32504	
789	0	32773	33182	
790	0	32724	32610	
791	0	32752	32004	
792	0	32792	31603	
793	0	32775	32439	
794	0	32748	32814	
795	0	32866	33212	
796	0	32834	32891	
797	0	32756	32079	
798	0	32802	32512	
799	0	32737	32956	
800	0	32798	32103	
801	0	32868	31832	
802	0	32876	32290	
803	0	32784	32788	
804	0	32784	33076	
805	0	32758	32995	
806	0	32686	32347	
807	0	32760	31795	
808	0	32798	30959	
809	0	32772	32023	
810	0	32760	32250	
811	0	32812	33594	
812	0	32644	33530	
813	0	32740	32995	
814	0	32858	32992	
815	0	32740	32637	
816	0	32824	32007	
817	0	32835	32418	
818	0	32832	32542	
819	0	32694	32244	
820	0	32812	32041	
821	0	32910	32143	
822	0	32753	32263	
823	0	32756	32251	
824	0	33052	31935	
825	0	32852	31819	
826	0	32728	32186	
827	0	32710	32693	
828	0	32756	32615	
829	0	32718	32222	
830	0	32624	32529	
831	0	32789	32727	
832	0	32612	32634	
833	0	32388	32572	
834	0	32274	32088	
835	0	32250	32148	
836	0	32148	32519	
837	0	32120	32340	
838	0	32120	31958	
839	0	32090	32872	
840	0	31772	33262	
841	0	31682	31727	
842	0	31760	31239	
843	0	32024	32158	
844	0	31982	33797	
845	0	31924	33434	
846	0	32030	33003	
847	0	32252	32223	
848	0	32692	32647	
849	0	33222	32639	
850	0	33296	32039	
851	0	33617	31748	
852	0	33620	32091	
853	0	33760	32582	
854	0	34054	32639	
855	0	34180	32174	
856	0	34137	32171	
857	0	34070	32381	
858	0	34034	32551	
859	0	34720	32380	
860	0	35060	32050	
861	0	35182	32431	
862	0	34904	32575	
863	0	34892	32646	
864	0	35180	32670	
865	0	36068	32633	
866	0	36272	31767	
867	0	36076	32071	
868	0	35496	32740	
869	0	34880	33070	
870	0	33694	32318	
871	0	32564	32223	
872	0	31860	32451	
873	0	31320	32239	
874	0	30964	33519	
875	0	30888	33823	
876	0	30990	33015	
877	0	31204	32738	
878	0	31408	32532	
879	0	31136	31687	
880	0	30812	31089	
881	0	30864	31387	
882	0	30968	32015	
883	0	31306	32364	
884	0	31460	32273	
885	0	31394	32212	
886	0	31272	32331	
887	0	31157	32636	
888	0	31168	32757	
889	0	31240	32500	
890	0	31280	31811	
891	0	31168	31903	
892	0	31242	32422	
893	0	31364	32578	
894	0	31572	33004	
895	0	31912	32715	
896	0	32120	32407	
897	0	32430	32561	
898	0	32596	32347	
899	0	32938	32388	
900	0	33066	32238	
901	0	33264	32042	
902	0	33364	32466	
903	0	33404	31510	
904	0	33586	32156	
905	0	33526	33044	
906	0	33628	33143	
907	0	33534	32110	
908	0	33512	32199	
909	0	33436	32922	
910	0	33420	33335	
911	0	33403	32636	
912	0	33238	32004	
913	0	33192	31519	
914	0	33142	31852	
915	0	33114	32810	
916	0	32986	32834	
917	0	33056	32652	
918	0	33124	32344	
919	0	33036	32154	
920	0	32958	32388	
921	0	32884	32631	
922	0	32910	32455	
923	0	32912	32095	
924	0	32828	31780	
925	0	32830	32340	
926	0	32816	32746	
927	0	32772	32743	
928	0	32768	32865	
929	0	32776	32154	
930	0	32796	32167	
931	0	32796	32579	
932	0	32896	31995	
933	0	32914	31580	
934	0	32872	32212	
935	0	32801	32852	
936	0	32906	32839	
937	0	32838	32237	
938	0	32900	32422	
939	0	32814	32407	
940	0	32944	32199	
941	0	32812	32646	
942	0	32924	32591	
943	0	32836	32639	
944	0	32814	32596	
945	0	32772	32503	
946	0	32734	32605	
947	0	32808	32354	
948	0	32758	32072	
949	0	32748	32407	
950	0	32700	32681	
951	0	32764	31814	
952	0	32804	32202	
953	0	32760	32471	
954	0	32692	32502	
955	0	32798	32699	
956	0	32900	32807	
957	0	32740	31939	
958	0	32836	32693	
959	0	32788	32694	
960	0	32860	32085	
961	0	32868	32804	
962	0	32870	32951	
963	0	32912	32724	
964	0	32844	32195	
965	0	32740	31542	
966	0	32672	31879	
967	0	32734	32225	
968	0	32808	32411	
969	0	32752	31876	
970	0	32880	32724	
971	0	32796	33022	
972	0	32794	32911	
973	0	32736	32415	
974	0	32800	31850	
975	0	32944	32226	
976	0	32856	32471	
977	0	32754	32241	
978	0	32848	32607	
979	0	32922	32638	
980	0	32828	32879	
981	0	32846	32544	
982	0	32672	31823	
983	0	32663	32638	
984	0	32804	32911	
985	0	32756	32913	
986	0	32742	32164	
987	0	32814	31666	
988	0	32880	32148	
989	0	32927	31763	
990	0	32921	32134	
991	0	32807	33091	
992	0	32822	32788	
993	0	32732	32660	
994	0	32692	32559	
995	0	32750	32311	
996	0	32744	31982	
997	0	32686	32455	
998	0	32647	32591	
999	0	32760	31887	
1000	0	32872	32119	
1001	0	32908	32592	
1002	0	32903	32799	
1003	0	32816	32775	
1004	0	32818	32252	
1005	0	32740	32220	
1006	0	32784	32327	
1007	0	32764	32126	
1008	0	32860	32531	
1009	0	32934	33031	
1010	0	32816	32501	
1011	0	32670	31799	
1012	0	32648	31959	
1013	0	32856	32260	
1014	0	32823	32506	
1015	0	32778	32604	
1016	0	32774	32930	
1017	0	32807	32820	
1018	0	32828	32743	
1019	0	32724	33013	
1020	0	32748	32742	
1021	0	32926	32526	
1022	0	32764	32458	
1023	0	32694	32461	
1024	0	32788	31900	
1025	0	32794	31879	
1026	0	32826	32190	
1027	0	32743	32618	
1028	0	32720	32547	
1029	0	32775	32262	
1030	0	32836	32124	
1031	0	32772	32006	
1032	0	32846	32225	
1033	0	32850	32695	
1034	0	32868	32980	
1035	0	32816	32596	
1036	0	32744	32277	
1037	0	32872	32070	
1038	0	32942	32023	
1039	0	32768	32181	
1040	0	32716	32702	
1041	0	32928	32485	
1042	0	32860	32807	
1043	0	32844	32647	
1044	0	32852	32443	
1045	0	32684	32399	
1046	0	32818	32366	
1047	0	32788	31663	
1048	0	32744	31728	
1049	0	32760	32135	
1050	0	32884	32658	
1051	0	32852	32975	
1052	0	32740	32346	
1053	0	32920	32835	
1054	0	32824	32740	
1055	0	32892	33374	
1056	0	32888	33276	
1057	0	32868	32428	
1058	0	32872	32291	
1059	0	32804	32150	
1060	0	32841	31491	
1061	0	32706	32055	
1062	0	32772	32215	
1063	0	32790	32247	
1064	0	32798	32540	
1065	0	32740	32151	
1066	0	32932	32287	
1067	0	32894	32337	
1068	0	32814	32519	
1069	0	32762	32507	
1070	0	32786	32735	
1071	0	32888	32751	
1072	0	32920	32383	
1073	0	32760	32291	
1074	0	32738	32679	
1075	0	32804	32880	
1076	0	32813	33111	
1077	0	32796	32414	
1078	0	32756	32149	
1079	0	32844	33191	
1080	0	32689	32692	
1081	0	32716	31604	
1082	0	32932	31999	
1083	0	32792	32975	
1084	0	32746	32831	
1085	0	32816	32236	
1086	0	32716	32106	
1087	0	32744	32605	
1088	0	32888	32678	
1089	0	32848	32167	
1090	0	32834	32039	
1091	0	32828	32190	
1092	0	32810	31919	
1093	0	32768	32455	
1094	0	32922	32547	
1095	0	32944	32212	
1096	0	32796	32186	
1097	0	32816	32607	
1098	0	32916	32668	
1099	0	32806	32351	
1100	0	32816	32442	
1101	0	32870	32711	
1102	0	32952	32846	
1103	0	32816	32396	
1104	0	32792	31601	
1105	0	32872	32519	
1106	0	32736	32751	
1107	0	32864	32518	
1108	0	32884	32367	
1109	0	32880	32308	
1110	0	32844	32023	
1111	0	32880	33274	
1112	0	32932	33519	
1113	0	32764	32452	
1114	0	32815	32113	
1115	0	32852	32060	
1116	0	32716	31742	
1117	0	32718	32816	
1118	0	32740	33425	
1119	0	32804	32196	
1120	0	32840	31806	
1121	0	32921	31982	
1122	0	32748	32062	
1123	0	32688	32551	
1124	0	32692	32682	
1125	0	32706	32975	
1126	0	32720	32439	
1127	0	32836	32407	
1128	0	32724	33114	
1129	0	32696	32702	
1130	0	32768	31840	
1131	0	32752	32230	
1132	0	32756	32462	
1133	0	32732	32860	
1134	0	32830	32797	
1135	0	32786	32638	
1136	0	32810	31653	
1137	0	32810	31510	
1138	0	32794	32430	
1139	0	32814	32663	
1140	0	32748	32310	
1141	0	32790	32066	
1142	0	32916	32183	
1143	0	32870	31684	
1144	0	32752	31971	
1145	0	32620	33012	
1146	0	32756	32810	
1147	0	32752	32584	
1148	0	32768	32417	
1149	0	32672	32671	
1150	0	32780	32564	
1151	0	32868	32507	
1152	0	32838	32700	
1153	0	32748	32734	
1154	0	32849	32886	
1155	0	32676	32535	
1156	0	32858	32231	
1157	0	32814	32223	
1158	0	32946	32343	
1159	0	32852	32505	
1160	0	32780	32647	
1161	0	32648	32572	
1162	0	32730	32503	
1163	0	32709	32439	
1164	0	32634	32241	
1165	0	32670	32229	
1166	0	32900	32222	
1167	0	32797	32084	
1168	0	32768	31967	
1169	0	32786	32278	
1170	0	32838	32641	
1171	0	32736	32487	
1172	0	32814	32414	
1173	0	32716	32174	
1174	0	32882	32103	
1175	0	32800	32567	
1176	0	32784	32641	
1177	0	32796	32623	
1178	0	32816	32796	
1179	0	32844	32627	
1180	0	32876	32671	
1181	0	32790	32210	
1182	0	32728	32548	
1183	0	32720	31811	
1184	0	32770	31040	
1185	0	32814	32245	
1186	0	32724	33736	
1187	0	32820	33212	
1188	0	32988	31857	
1189	0	32903	32151	
1190	0	32832	33094	
1191	0	32880	33218	
1192	0	32684	32583	
1193	0	32704	32451	
1194	0	32764	32209	
1195	0	32836	32114	
1196	0	32798	31860	
1197	0	32852	32031	
1198	0	32800	32103	
1199	0	32790	32186	
1200	0	32856	32373	
1201	0	32812	32348	
1202	0	32774	32276	
1203	0	32836	32060	
1204	0	32918	32622	
1205	0	32816	33052	
1206	0	32904	32566	
1207	0	32852	32300	
1208	0	32836	32421	
1209	0	32788	32631	
1210	0	32768	32834	
1211	0	32824	32914	
1212	0	32788	32588	
1213	0	32720	32443	
1214	0	32728	32287	
1215	0	32810	31671	
1216	0	32916	31392	
1217	0	32748	32326	
1218	0	32864	33260	
1219	0	32800	33319	
1220	0	32754	33012	
1221	0	32748	32535	
1222	0	32812	31975	
1223	0	32898	31911	
1224	0	32802	32159	
1225	0	32767	32007	
1226	0	32754	31571	
1227	0	32884	32543	
1228	0	32804	32845	
1229	0	32834	32751	
1230	0	32864	32615	
1231	0	32784	32119	
1232	0	32822	31890	
1233	0	32885	32983	
1234	0	33012	32532	
1235	0	32692	32159	
1236	0	32684	32550	
1237	0	32748	32647	
1238	0	32872	32879	
1239	0	32830	32756	
1240	0	32728	32588	
1241	0	32820	32423	
1242	0	32676	32287	
1243	0	32684	31964	
1244	0	32780	32007	
1245	0	32856	32462	
1246	0	32876	32317	
1247	0	32758	31519	
1248	0	32814	32110	
1249	0	32868	32263	
1250	0	32872	33543	
1251	0	32858	33342	
1252	0	32776	33351	
1253	0	32770	33236	
1254	0	32920	32556	
1255	0	32838	32223	
1256	0	32746	32181	
1257	0	32752	32231	
1258	0	32820	31732	
1259	0	32746	32293	
1260	0	32794	32379	
1261	0	32708	32050	
1262	0	32817	31883	
1263	0	32832	32612	
1264	0	32812	33347	
1265	0	32730	32698	
1266	0	32526	31422	
1267	0	32556	32302	
1268	0	32624	32484	
1269	0	32614	32117	
1270	0	32554	32515	
1271	0	32696	32991	
1272	0	32496	32831	
1273	0	32706	32502	
1274	0	32770	32367	
1275	0	32756	32452	
1276	0	32876	31432	
1277	0	32948	31391	
1278	0	32772	33077	
1279	0	32814	32941	
1280	0	32794	32220	
1281	0	32814	32391	
1282	0	32894	32692	
1283	0	32942	32263	
1284	0	32986	32167	
1285	0	32824	32423	
1286	0	32762	32471	
1287	0	32804	32250	
1288	0	32558	32398	
1289	0	32638	32479	
1290	0	32716	32698	
1291	0	32885	32839	
1292	0	33020	32095	
1293	0	32838	31799	
1294	0	32654	32406	
1295	0	32610	32725	
1296	0	32662	32566	
1297	0	32736	32215	
1298	0	32830	32307	
1299	0	33068	32089	
1300	0	33124	32646	
1301	0	33166	33095	
1302	0	33184	32462	
1303	0	33210	32183	
1304	0	33170	32646	
1305	0	33080	32755	
1306	0	32932	32754	
1307	0	32832	32215	
1308	0	32668	31739	
1309	0	32690	31970	
1310	0	32666	32751	
1311	0	32778	32143	
1312	0	32852	32062	
1313	0	32844	32703	
1314	0	32924	32726	
1315	0	32808	32886	
1316	0	32676	32935	
1317	0	32868	32146	
1318	0	32798	32263	
1319	0	32818	32674	
1320	0	32775	30911	
1321	0	32848	31892	
1322	0	32884	32623	
1323	0	32846	32647	
1324	0	32820	32071	
1325	0	32836	32171	
1326	0	32972	32612	
1327	0	32796	32605	
1328	0	32692	32791	
1329	0	32832	32595	
1330	0	32775	32592	
1331	0	32780	31924	
1332	0	32880	32333	
1333	0	32852	32903	
1334	0	32782	32591	
1335	0	32784	32612	
1336	0	32842	32743	
1337	0	32704	32775	
1338	0	32700	32148	
1339	0	32804	31967	
1340	0	32848	32507	
1341	0	32896	32455	
1342	0	32847	32330	
1343	0	32816	32402	
1344	0	32740	31893	
1345	0	32712	31908	
1346	0	32854	32644	
1347	0	32816	32562	
1348	0	32900	32519	
1349	0	32800	32738	
1350	0	32696	32607	
1351	0	32700	32299	
1352	0	32845	32183	
1353	0	32718	32158	
1354	0	32694	32594	
1355	0	32753	32734	
1356	0	32756	32298	
1357	0	32720	32363	
1358	0	32820	32519	
1359	0	32824	32135	
1360	0	32708	31708	
1361	0	32640	32801	
1362	0	32724	32805	
1363	0	32877	32333	
1364	0	32774	32291	
1365	0	32724	32509	
1366	0	32660	32390	
1367	0	32728	32289	
1368	0	32772	31887	
1369	0	32771	32804	
1370	0	32774	32682	
1371	0	32774	32519	
1372	0	32744	32367	
1373	0	32812	31919	
1374	0	32730	32516	
1375	0	32794	32555	
1376	0	32846	32159	
1377	0	32860	31911	
1378	0	32788	33063	
1379	0	32952	33237	
1380	0	32960	32427	
1381	0	32848	32151	
1382	0	32788	32514	
1383	0	32748	32775	
1384	0	32700	32838	
1385	0	32680	32490	
1386	0	32728	31866	
1387	0	32774	31827	
1388	0	32738	31711	
1389	0	32764	32255	
1390	0	32832	32756	
1391	0	32752	32838	
1392	0	32756	32068	
1393	0	32760	31934	
1394	0	32732	32309	
1395	0	32888	32835	
1396	0	32716	32410	
1397	0	32820	32114	
1398	0	32828	32325	
1399	0	32716	32876	
1400	0	32748	32519	
1401	0	32716	32095	
1402	0	32622	32455	
1403	0	32528	32019	
1404	0	32464	31375	
1405	0	32263	31559	
1406	0	32154	32801	
1407	0	32093	33182	
1408	0	32156	33795	
1409	0	32142	33743	
1410	0	31764	32736	
1411	0	31748	32082	
1412	0	31880	31711	
1413	0	31988	31671	
1414	0	32068	32218	
1415	0	31976	32839	
1416	0	32006	32566	
1417	0	32282	32510	
1418	0	32646	32387	
1419	0	33080	32391	
1420	0	33472	32090	
1421	0	33632	31926	
1422	0	33936	32130	
1423	0	33928	32422	
1424	0	34064	32610	
1425	0	34152	32071	
1426	0	34030	32280	
1427	0	34012	32967	
1428	0	33808	32799	
1429	0	34252	31896	
1430	0	34844	31878	
1431	0	34964	32788	
1432	0	34676	32735	
1433	0	34316	32423	
1434	0	34564	32059	
1435	0	35072	31940	
1436	0	35752	32446	
1437	0	35620	32854	
1438	0	35328	32843	
1439	0	34838	32336	
1440	0	34472	31849	
1441	0	33500	32398	
1442	0	32428	32751	
1443	0	32054	33048	
1444	0	31516	32690	
1445	0	31174	32446	
1446	0	31038	32551	
1447	0	31316	32788	
1448	0	31445	32228	
1449	0	31248	32159	
1450	0	31096	32542	
1451	0	31092	32434	
1452	0	31100	32565	
1453	0	31238	32495	
1454	0	31290	32157	
1455	0	31489	32358	
1456	0	31540	32119	
1457	0	31696	32317	
1458	0	31572	32606	
1459	0	31460	31892	
1460	0	31484	32325	
1461	0	31252	33146	
1462	0	31263	32739	
1463	0	31304	32536	
1464	0	31476	32045	
1465	0	31726	31751	
1466	0	31806	32660	
1467	0	31950	32711	
1468	0	32270	32575	
1469	0	32522	32295	
1470	0	32760	31868	
1471	0	32986	32103	
1472	0	33184	32135	
1473	0	33376	32335	
1474	0	33394	32714	
1475	0	33504	32387	
1476	0	33552	32287	
1477	0	33388	32759	
1478	0	33480	32421	
1479	0	33448	32111	
1480	0	33396	32242	
1481	0	33396	32375	
1482	0	33312	32107	
1483	0	33306	32122	
1484	0	33192	32098	
1485	0	33092	32263	
1486	0	33048	32541	
1487	0	33058	32764	
1488	0	33092	32596	
1489	0	32924	32631	
1490	0	33012	32455	
1491	0	32928	32047	
1492	0	32878	32407	
1493	0	32848	32519	
1494	0	32924	32587	
1495	0	32840	32195	
1496	0	32824	32686	
1497	0	32924	32972	
1498	0	32918	32554	
1499	0	32960	32420	
1500	0	32872	32351	
1501	0	32900	31908	
1502	0	32840	32479	
1503	0	32806	32818	
1504	0	32822	32569	
1505	0	32874	32257	
1506	0	32778	32164	
1507	0	32727	31395	
1508	0	32700	31751	
1509	0	32810	32692	
1510	0	32852	32658	
1511	0	32798	32831	
1512	0	32794	32583	
1513	0	32790	32711	
1514	0	32872	33141	
1515	0	32866	32719	
1516	0	32932	32415	
1517	0	32798	32196	
1518	0	32812	31975	
1519	0	32872	32292	
1520	0	32876	32820	
1521	0	32780	33047	
1522	0	32738	32583	
1523	0	32900	32422	
1524	0	32769	32158	
1525	0	32751	32316	
1526	0	32812	32279	
1527	0	32760	32327	
1528	0	32858	32221	
1529	0	32737	32439	
1530	0	32794	32732	
1531	0	32744	32039	
1532	0	32780	32510	
1533	0	32705	32231	
1534	0	32828	32533	
1535	0	32808	32213	
1536	0	32780	32549	
1537	0	32804	32599	
1538	0	32760	32281	
1539	0	32820	32775	
1540	0	32932	32167	
1541	0	32852	31839	
1542	0	32692	32350	
1543	0	32640	32574	
1544	0	32760	32559	
1545	0	32814	32746	
1546	0	32816	32391	
1547	0	32784	31962	
1548	0	32820	32228	
1549	0	32818	32728	
1550	0	32848	31975	
1551	0	32737	31983	
1552	0	32775	32802	
1553	0	32780	32759	
1554	0	32752	32630	
1555	0	32798	32663	
1556	0	32880	32519	
1557	0	32888	32542	
1558	0	32846	32628	
1559	0	32740	32535	
1560	0	32826	32391	
1561	0	32884	32434	
1562	0	32790	32583	
1563	0	32828	32362	
1564	0	32756	32197	
1565	0	32804	32294	
1566	0	32794	32551	
1567	0	32702	32304	
1568	0	32767	32402	
1569	0	32794	32610	
1570	0	32740	32325	
1571	0	32836	31999	
1572	0	32704	32239	
1573	0	32662	32122	
1574	0	32808	32506	
1575	0	32908	32751	
1576	0	32851	33134	
1577	0	32794	33063	
1578	0	32808	32636	
1579	0	32696	32419	
1580	0	32814	32127	
1581	0	32858	32114	
1582	0	32944	32829	
1583	0	32868	32399	
1584	0	32816	32355	
1585	0	32794	32300	
1586	0	32687	32126	
1587	0	32736	31796	
1588	0	32812	32431	
1589	0	32902	32675	
1590	0	32664	32476	
1591	0	32718	31886	
1592	0	32772	32154	
1593	0	32736	31994	
1594	0	32784	33575	
1595	0	32708	33607	
1596	0	32736	32711	
1597	0	32910	32311	
1598	0	32804	31831	
1599	0	32832	31793	
1600	0	32768	32171	
1601	0	32824	31996	
1602	0	32752	32202	
1603	0	32780	32729	
1604	0	32724	32836	
1605	0	32775	32980	
1606	0	32956	32877	
1607	0	32936	32702	
1608	0	32909	32585	
1609	0	32844	31972	
1610	0	32888	32375	
1611	0	32692	32079	
1612	0	32790	32181	
1613	0	32792	32511	
1614	0	32784	32636	
1615	0	32796	32623	
1616	0	32896	32759	
1617	0	32762	32172	
1618	0	32948	32207	
1619	0	32796	32056	
1620	0	32740	32383	
1621	0	32752	32755	
1622	0	32760	32500	
1623	0	32808	32170	
1624	0	32824	32246	
1625	0	32972	32487	
1626	0	32826	32420	
1627	0	32874	32879	
1628	0	32748	33006	
1629	0	32764	32404	
1630	0	32744	32198	
1631	0	32720	32879	
1632	0	32772	32572	
1633	0	32856	32687	
1634	0	32780	32574	
1635	0	32654	31861	
1636	0	32812	32052	
1637	0	32822	32100	
1638	0	32741	32572	
1639	0	32864	32175	
1640	0	32876	31787	
1641	0	32820	32110	
1642	0	32908	32678	
1643	0	32984	32572	
1644	0	32892	32327	
1645	0	32948	32620	
1646	0	32728	32391	
1647	0	32780	32546	
1648	0	32872	32551	
1649	0	32858	32198	
1650	0	32608	32391	
1651	0	32788	32759	
1652	0	32772	32483	
1653	0	32698	32391	
1654	0	32808	32639	
1655	0	32788	32363	
1656	0	32848	32399	
1657	0	32970	32406	
1658	0	32932	32175	
1659	0	32888	32263	
1660	0	32816	33160	
1661	0	32832	32422	
1662	0	32852	32170	
1663	0	32838	31967	
1664	0	32788	32262	
1665	0	32785	32819	
1666	0	32818	32647	
1667	0	32804	32479	
1668	0	32765	32037	
1669	0	32804	32164	
1670	0	32884	32591	
1671	0	32810	32711	
1672	0	32846	32631	
1673	0	32784	32412	
1674	0	32804	31626	
1675	0	32836	32060	
1676	0	32808	32607	
1677	0	32730	32634	
1678	0	32748	32590	
1679	0	32750	32798	
1680	0	32888	33093	
1681	0	32908	32709	
1682	0	32836	31966	
1683	0	32782	32244	
1684	0	32702	32575	
1685	0	32716	31652	
1686	0	32772	32051	
1687	0	32844	32287	
1688	0	32862	32221	
1689	0	32826	32767	
1690	0	32764	32587	
1691	0	32828	32614	
1692	0	32890	32455	
1693	0	32838	32355	
1694	0	32794	32263	
1695	0	32812	32178	
1696	0	32804	32351	
1697	0	32772	32556	
1698	0	32766	32374	
1699	0	32832	32536	
1700	0	32788	32420	
1701	0	32720	32601	
1702	0	32788	32472	
1703	0	32812	32519	
1704	0	32764	32477	
1705	0	32780	32303	
1706	0	32724	32030	
1707	0	32792	32289	
1708	0	32816	32711	
1709	0	32781	32486	
1710	0	32774	32375	
1711	0	32724	32046	
1712	0	32734	30983	
1713	0	32780	32323	
1714	0	32806	32831	
1715	0	32810	32317	
1716	0	32812	32315	
1717	0	32878	32434	
1718	0	32802	32657	
1719	0	32752	32391	
1720	0	32680	32207	
1721	0	32778	32583	
1722	0	32764	32646	
1723	0	32640	32801	
1724	0	32705	32804	
1725	0	32774	32380	
1726	0	32826	31787	
1727	0	32938	31898	
1728	0	32790	32747	
1729	0	32764	32791	
1730	0	32750	32685	
1731	0	32726	32251	
1732	0	32769	31934	
1733	0	32772	31927	
1734	0	32838	32159	
1735	0	32768	32503	
1736	0	32772	32713	
1737	0	32743	32642	
1738	0	32780	32427	
1739	0	32788	32727	
1740	0	32814	32542	
1741	0	32814	32381	
1742	0	32666	32294	
1743	0	32712	32831	
1744	0	32772	32718	
1745	0	32816	32159	
1746	0	32858	32170	
1747	0	32836	32543	
1748	0	32772	32705	
1749	0	32750	32476	
1750	0	32738	32364	
1751	0	32708	32549	
1752	0	32806	32407	
1753	0	32838	32022	
1754	0	32880	32071	
1755	0	32737	32359	
1756	0	32836	32487	
1757	0	32870	32470	
1758	0	32864	32502	
1759	0	32828	32695	
1760	0	32753	32774	
1761	0	32806	32604	
1762	0	32854	32708	
1763	0	32886	32445	
1764	0	32816	32119	
1765	0	32856	32135	
1766	0	32852	32308	
1767	0	32810	32181	
1768	0	32786	32311	
1769	0	32792	32414	
1770	0	32782	32560	
1771	0	32791	33895	
1772	0	32814	33283	
1773	0	32716	32542	
1774	0	32782	32133	
1775	0	32768	32283	
1776	0	32772	31276	
1777	0	32740	32376	
1778	0	32794	33031	
1779	0	32830	32418	
1780	0	32780	32196	
1781	0	32592	32182	
1782	0	32574	32007	
1783	0	32636	32183	
1784	0	32640	32178	
1785	0	32616	32479	
1786	0	32660	32574	
1787	0	32618	32858	
1788	0	32676	33069	
1789	0	32766	32432	
1790	0	32772	32295	
1791	0	32800	32515	
1792	0	32884	32387	
1793	0	32992	32247	
1794	0	32824	32263	
1795	0	32822	32492	
1796	0	32752	32478	
1797	0	32792	32334	
1798	0	32942	32335	
1799	0	32872	32556	
1800	0	32800	32542	
1801	0	32958	32463	
1802	0	32800	32058	
1803	0	32686	31918	
1804	0	32552	32404	
1805	0	32700	32943	
1806	0	32868	32695	
1807	0	32926	32631	
1808	0	32956	32598	
1809	0	32914	32343	
1810	0	32784	31447	
1811	0	32672	31436	
1812	0	32769	32372	
1813	0	32716	33343	
1814	0	32756	33212	
1815	0	33056	32596	
1816	0	33054	32558	
1817	0	32905	32346	
1818	0	33104	32243	
1819	0	33198	32196	
1820	0	33394	32093	
1821	0	33234	32315	
1822	0	33142	32132	
1823	0	32754	32103	
1824	0	32724	31886	
1825	0	32756	32107	
1826	0	32728	32311	
1827	0	32764	32482	
1828	0	32806	32721	
1829	0	32688	32700	
1830	0	32676	32590	
1831	0	32847	32482	
1832	0	32912	32355	
1833	0	32836	32323	
1834	0	32836	32661	
1835	0	32852	32711	
1836	0	32856	32380	
1837	0	32792	32287	
1838	0	32860	32263	
1839	0	32884	32069	
1840	0	32896	32127	
1841	0	32782	32590	
1842	0	32784	32820	
1843	0	32736	33415	
1844	0	32788	32893	
1845	0	32786	32767	
1846	0	32810	31775	
1847	0	32816	31738	
1848	0	32842	32069	
1849	0	32750	32386	
1850	0	32758	32191	
1851	0	32852	32135	
1852	0	32786	32926	
1853	0	32652	32943	
1854	0	32680	32615	
1855	0	32818	32546	
1856	0	32798	32486	
1857	0	32810	32423	
1858	0	32772	32519	
1859	0	32658	32470	
1860	0	32828	32312	
1861	0	32776	32178	
1862	0	32756	32381	
1863	0	32776	32068	
1864	0	32682	31724	
1865	0	32772	32180	
1866	0	32704	32799	
1867	0	32790	32735	
1868	0	32758	32639	
1869	0	32758	33084	
1870	0	32696	31869	
1871	0	32736	31421	
1872	0	32760	31511	
1873	0	32798	32692	
1874	0	32804	31983	
1875	0	32832	32764	
1876	0	32772	33758	
1877	0	32816	33615	
1878	0	32820	32839	
1879	0	32916	32263	
1880	0	32716	32331	
1881	0	32736	32202	
1882	0	32672	31964	
1883	0	32872	31855	
1884	0	32775	32459	
1885	0	32724	32647	
1886	0	32736	32516	
1887	0	32738	32252	
1888	0	32804	32382	
1889	0	32789	32422	
1890	0	32788	32022	
1891	0	32688	32399	
1892	0	32748	32643	
1893	0	32792	32263	
1894	0	32756	32046	
1895	0	32775	32423	
1896	0	32824	32670	
1897	0	32836	32455	
1898	0	32780	32318	
1899	0	32804	32343	
1900	0	32872	32207	
1901	0	32745	32193	
1902	0	32772	32231	
1903	0	32838	32572	
1904	0	32824	32605	
1905	0	32828	32502	
1906	0	32812	32948	
1907	0	32796	32865	
1908	0	32764	32703	
1909	0	32784	33180	
1910	0	32836	32239	
1911	0	32732	32363	
1912	0	32828	31751	
1913	0	32768	31943	
1914	0	32742	32463	
1915	0	32740	32503	
1916	0	32928	32126	
1917	0	32908	32143	
1918	0	32668	32888	
1919	0	32672	33069	
1920	0	32568	32727	
1921	0	32516	32245	
1922	0	32524	32639	
1923	0	32378	32314	
1924	0	32228	32055	
1925	0	32138	32494	
1926	0	32104	32429	
1927	0	32014	32203	
1928	0	31788	32324	
1929	0	31848	32600	
1930	0	31900	32058	
1931	0	31868	32155	
1932	0	32088	32596	
1933	0	31994	32317	
1934	0	32062	32415	
1935	0	32468	32188	
1936	0	32864	31994	
1937	0	33240	32292	
1938	0	33518	32915	
1939	0	33828	32743	
1940	0	33940	32684	
1941	0	34000	32715	
1942	0	34068	32409	
1943	0	34040	32330	
1944	0	33980	31917	
1945	0	33900	32108	
1946	0	33980	32716	
1947	0	34470	32319	
1948	0	34807	31914	
1949	0	34639	32280	
1950	0	34528	32535	
1951	0	34508	32747	
1952	0	35036	32709	
1953	0	35556	32642	
1954	0	35848	32490	
1955	0	35442	32040	
1956	0	35252	32475	
1957	0	34798	32257	
1958	0	33634	32460	
1959	0	32716	32796	
1960	0	32052	32160	
1961	0	31504	32067	
1962	0	31200	32535	
1963	0	30960	33254	
1964	0	31112	32874	
1965	0	31366	32303	
1966	0	31268	32278	
1967	0	31328	32341	
1968	0	31176	32454	
1969	0	31079	32038	
1970	0	30988	32535	
1971	0	31282	32711	
1972	0	31212	32146	
1973	0	31240	31940	
1974	0	31372	32124	
1975	0	31210	32500	
1976	0	31264	32401	
1977	0	31192	32375	
1978	0	31082	32038	
1979	0	31174	32688	
1980	0	31232	32476	
1981	0	31500	32756	
1982	0	31620	32055	
1983	0	31918	32071	
1984	0	32100	32606	
1985	0	32500	31972	
1986	0	32848	32030	
1987	0	33032	32732	
1988	0	33264	32346	
1989	0	33412	32554	
1990	0	33482	32534	
1991	0	33546	32647	
1992	0	33496	32455	
1993	0	33560	32715	
1994	0	33520	32002	
1995	0	33450	32230	
1996	0	33412	33036	
1997	0	33408	32903	
1998	0	33368	32359	
1999	0	33332	32455	
2000	0	33294	32359	
2001	0	33256	32075	
2002	0	33160	32135	
2003	0	33208	32191	
2004	0	33240	32647	
2005	0	33090	32559	
2006	0	33010	32289	
2007	0	32902	32092	
2008	0	32874	32243	
2009	0	32986	32738	
2010	0	32934	32751	
2011	0	32996	32335	
2012	0	32990	32121	
2013	0	32992	32263	
2014	0	32948	32300	
2015	0	32816	31970	
2016	0	32796	32367	
2017	0	32852	33007	
2018	0	32783	32647	
2019	0	32810	31807	
2020	0	32764	32639	
2021	0	32772	33211	
2022	0	32856	32761	
2023	0	32904	32340	
2024	0	32872	32292	
2025	0	32856	32656	
2026	0	32740	32500	
2027	0	32789	32006	
2028	0	32798	32220	
2029	0	32684	32551	
2030	0	32728	32468	
2031	0	32770	32231	
2032	0	32768	32223	
2033	0	32778	32598	
2034	0	32766	32583	
2035	0	32780	32507	
2036	0	32708	32318	
2037	0	32824	32155	
2038	0	32844	32322	
2039	0	32796	32607	
2040	0	32799	32886	
2041	0	32864	32519	
2042	0	32808	32220	
2043	0	32834	32179	
2044	0	32894	32581	
2045	0	32828	32390	
2046	0	32830	32177	
2047	0	32880	32551	
2048	0	32720	32231	
2049	0	32828	32295	
2050	0	32814	32367	
2051	0	32736	32294	
2052	0	32740	32188	
2053	0	32796	32853	
2054	0	32740	32926	
2055	0	32780	32398	
2056	0	32780	32351	
2057	0	32788	32316	
2058	0	32814	32199	
2059	0	32812	32263	
2060	0	32740	32263	
2061	0	32782	32716	
2062	0	32710	32931	
2063	0	32880	32655	
2064	0	32756	32551	
2065	0	32796	32535	
2066	0	32756	32365	
2067	0	32886	32426	
2068	0	32900	31694	
2069	0	32784	31566	
2070	0	32692	32313	
2071	0	32692	32836	
2072	0	32797	32572	
2073	0	32822	32295	
2074	0	32856	32558	
2075	0	32804	32831	
2076	0	32976	32759	
2077	0	32917	32591	
2078	0	32948	32298	
2079	0	32850	32255	
2080	0	32784	32359	
2081	0	32732	32302	
2082	0	32732	32581	
2083	0	32682	32754	
2084	0	32868	32687	
2085	0	32788	32414	
2086	0	32802	32077	
2087	0	32775	32120	
2088	0	32768	32227	
2089	0	32808	31975	
2090	0	32696	31867	
2091	0	32784	32331	
2092	0	32766	32710	
2093	0	32800	32543	
2094	0	32736	32170	
2095	0	32716	32258	
2096	0	32856	32432	
2097	0	32872	32634	
2098	0	32856	32496	
2099	0	32752	32367	
2100	0	32864	32500	
2101	0	32790	32687	
2102	0	32702	32743	
2103	0	32772	32476	
2104	0	32806	32399	
2105	0	32814	32565	
2106	0	32830	32599	
2107	0	32720	32423	
2108	0	32732	32460	
2109	0	32768	32424	
2110	0	32784	31943	
2111	0	32748	32292	
2112	0	32764	33066	
2113	0	32760	32519	
2114	0	32778	32423	
2115	0	32806	32199	
2116	0	32815	32391	
2117	0	32744	32519	
2118	0	32737	32562	
2119	0	32726	32500	
2120	0	32736	32327	
2121	0	32876	32115	
2122	0	32868	32388	
2123	0	32872	32463	
2124	0	32854	32684	
2125	0	32904	32615	
2126	0	32868	32496	
2127	0	32774	32530	
2128	0	32956	32719	
2129	0	32830	32647	
2130	0	32788	32263	
2131	0	32852	32299	
2132	0	32800	32508	
2133	0	32775	32529	
2134	0	32782	32619	
2135	0	32738	32486	
2136	0	32784	32287	
2137	0	32834	31938	
2138	0	32773	32091	
2139	0	32790	32204	
2140	0	32768	32294	
2141	0	32852	32727	
2142	0	32804	32734	
2143	0	32796	32687	
2144	0	32926	32487	
2145	0	32853	32191	
2146	0	32842	32159	
2147	0	32850	32416	
2148	0	32836	32077	
2149	0	32836	32263	
2150	0	32916	32342	
2151	0	32836	33124	
2152	0	32808	33313	
2153	0	32822	32547	
2154	0	32764	32622	
2155	0	32804	32609	
2156	0	32836	32391	
2157	0	32908	32311	
2158	0	32790	32222	
2159	0	32854	32438	
2160	0	32948	32286	
2161	0	32932	32351	
2162	0	32917	32493	
2163	0	32848	32695	
2164	0	32836	32551	
2165	0	32856	32487	
2166	0	32872	32507	
2167	0	32910	32510	
2168	0	32768	32623	
2169	0	32820	31751	
2170	0	32772	31597	
2171	0	32864	33051	
2172	0	32838	33492	
2173	0	32888	32751	
2174	0	32864	32507	
2175	0	32848	31528	
2176	0	32796	30821	
2177	0	32796	32655	
2178	0	32880	32722	
2179	0	32766	32789	
2180	0	32742	32719	
2181	0	32796	32373	
2182	0	32780	32660	
2183	0	32775	32252	
2184	0	32804	32234	
2185	0	32814	32877	
2186	0	32794	32684	
2187	0	32901	32177	
2188	0	32788	32460	
2189	0	32670	32639	
2190	0	32776	32132	
2191	0	32876	32109	
2192	0	32884	32466	
2193	0	32852	32642	
2194	0	32798	32502	
2195	0	32724	32231	
2196	0	32748	32453	
2197	0	32844	32375	
2198	0	32876	31990	
2199	0	32782	32310	
2200	0	32752	32407	
2201	0	32746	32565	
2202	0	32784	32578	
2203	0	32844	32164	
2204	0	32824	32327	
2205	0	32775	32714	
2206	0	32828	32551	
2207	0	32804	32087	
2208	0	32784	32066	
2209	0	32826	32535	
2210	0	32744	32647	
2211	0	32818	32511	
2212	0	32780	32415	
2213	0	32672	32586	
2214	0	32712	32626	
2215	0	32857	32367	
2216	0	32844	32362	
2217	0	32842	32735	
2218	0	32888	32502	
2219	0	32882	32188	
2220	0	32712	32263	
2221	0	32812	32462	
2222	0	32848	32762	
2223	0	32770	32551	
2224	0	32734	32223	
2225	0	32722	32512	
2226	0	32682	32507	
2227	0	32798	32023	
2228	0	32758	31859	
2229	0	32798	32099	
2230	0	32784	32583	
2231	0	32825	32551	
2232	0	32732	32421	
2233	0	32742	32199	
2234	0	32724	32156	
2235	0	32716	32743	
2236	0	32709	32427	
2237	0	32744	32213	
2238	0	32842	32819	
2239	0	32860	32903	
2240	0	32816	32293	
2241	0	32806	32386	
2242	0	32776	32536	
2243	0	32776	32183	
2244	0	32736	32215	
2245	0	32710	32569	
2246	0	32676	32558	
2247	0	32702	32437	
2248	0	32724	32302	
2249	0	32834	32359	
2250	0	32924	32638	
2251	0	32826	32474	
2252	0	32736	32031	
2253	0	32836	31871	
2254	0	32800	32434	
2255	0	32874	32818	
2256	0	32774	32426	
2257	0	32742	32226	
2258	0	32796	32455	
2259	0	32772	32603	
2260	0	32758	32473	
2261	0	32844	32479	
2262	0	32666	32375	
2263	0	32772	32766	
2264	0	32750	33002	
2265	0	32848	32507	
2266	0	32846	31990	
2267	0	32868	31295	
2268	0	32828	32751	
2269	0	32806	33210	
2270	0	32758	32639	
2271	0	32863	32502	
2272	0	32848	32686	
2273	0	32856	32327	
2274	0	32836	32416	
2275	0	32794	32662	
2276	0	32764	32175	
2277	0	32746	31957	
2278	0	32708	31908	
2279	0	32814	32191	
2280	0	32696	32615	
2281	0	32764	32739	
2282	0	32752	32885	
2283	0	32804	32191	
2284	0	32881	32091	
2285	0	32796	32615	
2286	0	32798	32555	
2287	0	32840	32739	
2288	0	32794	32514	
2289	0	32916	32287	
2290	0	32918	32290	
2291	0	32744	32598	
2292	0	32670	32559	
2293	0	32516	32219	
2294	0	32610	32067	
2295	0	32718	32191	
2296	0	32668	32471	
2297	0	32540	32581	
2298	0	32599	32319	
2299	0	32768	32258	
2300	0	32788	32370	
2301	0	32804	32482	
2302	0	32862	32391	
2303	0	32868	32612	
2304	0	32908	32601	
2305	0	32844	32550	
2306	0	32736	32390	
2307	0	32750	32219	
2308	0	32757	31932	
2309	0	32790	32206	
2310	0	32894	32583	
2311	0	32862	32698	
2312	0	32836	32679	
2313	0	32794	32484	
2314	0	32602	32359	
2315	0	32580	32437	
2316	0	32804	32645	
2317	0	32876	32606	
2318	0	33016	32645	
2319	0	33068	32769	
2320	0	32900	32767	
2321	0	32836	32684	
2322	0	32680	32610	
2323	0	32654	32244	
2324	0	32852	31916	
2325	0	32876	32039	
2326	0	32908	32639	
2327	0	33000	32636	
2328	0	33156	32375	
2329	0	33252	32339	
2330	0	33300	32180	
2331	0	33134	32167	
2332	0	33100	32164	
2333	0	32984	32558	
2334	0	32860	33095	
2335	0	32730	32798	
2336	0	32700	32514	
2337	0	32654	32573	
2338	0	32676	32205	
2339	0	32694	31809	
2340	0	32764	32677	
2341	0	32680	32919	
2342	0	32858	32375	
2343	0	32852	32391	
2344	0	32814	32327	
2345	0	32804	32253	
2346	0	32804	32658	
2347	0	32832	32499	
2348	0	32836	32359	
2349	0	32882	31911	
2350	0	32936	32355	
2351	0	32780	32022	
2352	0	32820	32066	
2353	0	32852	32490	
2354	0	32758	32374	
2355	0	32788	32120	
2356	0	32774	31983	
2357	0	32812	32263	
2358	0	32904	32375	
2359	0	32872	32319	
2360	0	32796	32519	
2361	0	32898	32606	
2362	0	32916	32868	
2363	0	32862	32796	
2364	0	32762	32279	
2365	0	32682	31591	
2366	0	32652	31620	
2367	0	32816	32639	
2368	0	32934	32415	
2369	0	32832	32324	
2370	0	32766	32519	
2371	0	32744	32827	
2372	0	32769	32757	
2373	0	32756	32303	
2374	0	32724	32200	
2375	0	32714	32240	
2376	0	32724	32468	
2377	0	32756	32800	
2378	0	32802	32726	
2379	0	32792	32431	
2380	0	32808	31892	
2381	0	32750	32565	
2382	0	32716	32775	
2383	0	32764	32759	
2384	0	32764	32404	
2385	0	32909	32630	
2386	0	32836	32007	
2387	0	32784	31870	
2388	0	32808	31970	
2389	0	32725	32400	
2390	0	32774	33322	
2391	0	32726	32932	
2392	0	32740	32068	
2393	0	32756	31874	
2394	0	32804	32238	
2395	0	32748	32544	
2396	0	32750	32362	
2397	0	32784	32287	
2398	0	32782	32519	
2399	0	32780	32663	
2400	0	32812	32380	
2401	0	32842	32196	
2402	0	32828	32495	
2403	0	32799	32276	
2404	0	32786	32071	
2405	0	32718	32417	
2406	0	32740	32742	
2407	0	32790	32574	
2408	0	32796	32316	
2409	0	32710	32232	
2410	0	32740	32280	
2411	0	32788	32551	
2412	0	32749	32135	
2413	0	32892	32323	
2414	0	32834	32678	
2415	0	32804	33014	
2416	0	32734	32887	
2417	0	32736	32775	
2418	0	32778	32729	
2419	0	32805	32451	
2420	0	32852	32286	
2421	0	32812	32230	
2422	0	32788	31953	
2423	0	32892	32095	
2424	0	32756	32386	
2425	0	32858	32566	
2426	0	32830	32492	
2427	0	32775	32515	
2428	0	32759	32447	
2429	0	32796	32426	
2430	0	32673	32332	
2431	0	32537	32319	
2432	0	32440	32431	
2433	0	32364	32357	
2434	0	32254	32229	
2435	0	32100	32071	
2436	0	32000	32158	
2437	0	32062	32542	
2438	0	31896	32519	
2439	0	31684	32182	
2440	0	31748	32326	
2441	0	31804	32490	
2442	0	31814	32775	
2443	0	31868	32775	
2444	0	31812	32223	
2445	0	31916	32332	
2446	0	32374	32332	
2447	0	33132	32263	
2448	0	33428	32278	
2449	0	33753	32199	
2450	0	34052	32215	
2451	0	34230	32181	
2452	0	34270	31999	
2453	0	34586	32308	
2454	0	34388	32775	
2455	0	34396	32504	
2456	0	34324	32462	
2457	0	34642	32487	
2458	0	34808	32542	
2459	0	35088	32663	
2460	0	34954	32607	
2461	0	34638	32364	
2462	0	34740	32173	
2463	0	35212	32084	
2464	0	35704	32188	
2465	0	35474	32303	
2466	0	35328	32346	
2467	0	34986	32423	
2468	0	33884	32591	
2469	0	32842	32799	
2470	0	32156	32615	
2471	0	31436	32683	
2472	0	30904	32774	
2473	0	30704	32374	
2474	0	30736	32711	
2475	0	31074	32262	
2476	0	31312	32343	
2477	0	31290	32964	
2478	0	31286	32488	
2479	0	31108	32263	
2480	0	31176	32014	
2481	0	31392	32839	
2482	0	31336	32867	
2483	0	31192	32574	
2484	0	31162	31911	
2485	0	31148	31860	
2486	0	31084	32220	
2487	0	30804	32546	
2488	0	30860	32676	
2489	0	30988	32675	
2490	0	31070	32408	
2491	0	31280	31973	
2492	0	31508	31919	
2493	0	31861	32202	
2494	0	32152	32591	
2495	0	32388	32599	
2496	0	32672	32245	
2497	0	33021	32388	
2498	0	33244	32341	
2499	0	33368	32699	
2500	0	33490	32564	
2501	0	33544	32468	
2502	0	33600	32215	
2503	0	33624	32250	
2504	0	33636	32508	
2505	0	33564	32702	
2506	0	33616	32685	
2507	0	33544	32667	
2508	0	33472	32630	
2509	0	33380	32391	
2510	0	33272	32132	
2511	0	33276	32062	
2512	0	33148	32170	
2513	0	33083	32277	
2514	0	33048	32614	
2515	0	33031	32720	
2516	0	33076	32630	
2517	0	33048	32110	
2518	0	32920	32469	
2519	0	33044	32622	
2520	0	32932	32286	
2521	0	32960	32464	
2522	0	32914	32402	
2523	0	32890	31962	
2524	0	32780	31812	
2525	0	32836	32644	
2526	0	32868	33255	
2527	0	32800	32698	
2528	0	32828	32539	
2529	0	32688	32421	
2530	0	32748	32255	
2531	0	32828	32451	
2532	0	32873	32746	
2533	0	32872	32575	
2534	0	32890	32279	
2535	0	32816	32000	
2536	0	32736	32187	
2537	0	32778	32741	
2538	0	32844	32574	
2539	0	32860	32112	
2540	0	32770	31871	
2541	0	32772	32120	
2542	0	32868	32655	
2543	0	32794	32660	
2544	0	32766	32639	
2545	0	32788	32455	
2546	0	32900	32159	
2547	0	32834	32451	
2548	0	32788	32503	
2549	0	32778	32194	
2550	0	32832	32695	
2551	0	32740	32431	
2552	0	32714	32401	
2553	0	32788	32643	
2554	0	32746	32447	
2555	0	32834	32348	
2556	0	32874	32370	
2557	0	32836	32379	
2558	0	32820	32391	
2559	0	32762	32346	
2560	0	32806	32459	
2561	0	32840	32431	
2562	0	32820	32899	
2563	0	32900	32682	
2564	0	32848	31838	
2565	0	32800	31527	
2566	0	32804	32439	
2567	0	32772	31528	
2568	0	32804	32326	
2569	0	32868	33187	
2570	0	32864	32893	
2571	0	32780	32567	
2572	0	32652	32549	
2573	0	32734	32759	
2574	0	32775	32967	
2575	0	32768	32719	
2576	0	32744	32227	
2577	0	32724	31782	
2578	0	32804	32308	
2579	0	32740	32695	
2580	0	32884	32482	
2581	0	32844	32595	
2582	0	32900	32638	
2583	0	32772	32351	
2584	0	32724	31791	
2585	0	32738	31743	
2586	0	32776	32246	
2587	0	32708	32391	
2588	0	32750	32290	
2589	0	32766	32563	
2590	0	32806	32609	
2591	0	32745	32460	
2592	0	32828	32343	
2593	0	32820	32148	
2594	0	32846	32309	
2595	0	32848	32119	
2596	0	32900	32667	
2597	0	32782	32614	
2598	0	32768	32455	
2599	0	32806	32743	
2600	0	32774	32315	
2601	0	32762	32532	
2602	0	32736	32143	
2603	0	32780	32311	
2604	0	32808	32655	
2605	0	32788	32396	
2606	0	32778	32293	
2607	0	32816	32324	
2608	0	32826	32614	
2609	0	32762	32295	
2610	0	32798	32177	
2611	0	32716	32241	
2612	0	32772	32332	
2613	0	32812	32312	
2614	0	32796	32295	
2615	0	32782	32629	
2616	0	32812	32767	
2617	0	32814	32287	
2618	0	32798	31934	
2619	0	32800	32026	
2620	0	32824	32750	
2621	0	32768	32871	
2622	0	32764	32678	
2623	0	32808	32487	
2624	0	32799	32210	
2625	0	32732	32196	
2626	0	32724	32380	
2627	0	32700	32511	
2628	0	32768	32679	
2629	0	32858	32541	
2630	0	32844	32545	
2631	0	32836	32379	
2632	0	32764	32387	
2633	0	32753	32295	
2634	0	32772	32396	
2635	0	32854	32223	
2636	0	32775	32055	
2637	0	32780	32379	
2638	0	32774	32725	
2639	0	32900	32534	
2640	0	32816	32465	
2641	0	32804	32478	
2642	0	32812	32118	
2643	0	32812	31838	
2644	0	32864	32370	
2645	0	32890	32618	
2646	0	32840	32882	
2647	0	32812	32564	
2648	0	32820	32207	
2649	0	32756	32055	
2650	0	32822	32478	
2651	0	32794	31898	
2652	0	32776	32717	
2653	0	32782	32407	
2654	0	32852	31966	
2655	0	32828	32007	
2656	0	32770	32583	
2657	0	32868	33119	
2658	0	32906	32714	
2659	0	32856	32323	
2660	0	32840	32663	
2661	0	32823	32698	
2662	0	32852	32189	
2663	0	32740	32258	
2664	0	32848	32675	
2665	0	32853	32587	
2666	0	32884	32316	
2667	0	32804	32340	
2668	0	32730	32263	
2669	0	32783	32199	
2670	0	32800	32143	
2671	0	32756	32164	
2672	0	32876	32354	
2673	0	32828	32588	
2674	0	32908	32127	
2675	0	32804	32158	
2676	0	32864	32405	
2677	0	32886	32791	
2678	0	32796	33002	
2679	0	32874	32668	
2680	0	32804	32066	
2681	0	32804	31743	
2682	0	32764	32391	
2683	0	32748	32078	
2684	0	32716	31655	
2685	0	32782	32551	
2686	0	32848	32860	
2687	0	32772	32730	
2688	0	32798	32519	
2689	0	32830	32373	
2690	0	32848	32527	
2691	0	32799	32814	
2692	0	32848	32772	
2693	0	32934	32546	
2694	0	32920	32303	
2695	0	32820	31965	
2696	0	32882	32039	
2697	0	32814	32311	
2698	0	32996	32802	
2699	0	32922	32927	
2700	0	32842	32894	
2701	0	32910	32796	
2702	0	32836	32511	
2703	0	32764	32255	
2704	0	32908	32129	
2705	0	32884	32060	
2706	0	32762	32250	
2707	0	32888	32624	
2708	0	32836	32149	
2709	0	32780	32063	
2710	0	32820	32090	
2711	0	32874	32204	
2712	0	32794	32294	
2713	0	32693	32383	
2714	0	32728	32671	
2715	0	32826	32844	
2716	0	32778	32670	
2717	0	32704	32518	
2718	0	32804	32410	
2719	0	32780	32574	
2720	0	32775	32586	
2721	0	32773	32386	
2722	0	32783	32119	
2723	0	32767	32342	
2724	0	32728	32540	
2725	0	32799	32537	
2726	0	32660	32218	
2727	0	32888	32247	
2728	0	32772	32630	
2729	0	32788	32278	
2730	0	32800	31951	
2731	0	32748	31474	
2732	0	32852	32183	
2733	0	32756	33167	
2734	0	32768	33433	
2735	0	32772	33046	
2736	0	32789	32707	
2737	0	32758	32164	
2738	0	32780	31879	
2739	0	32788	32109	
2740	0	32668	32443	
2741	0	32660	31904	
2742	0	32664	32613	
2743	0	32792	32551	
2744	0	32760	32703	
2745	0	32834	32895	
2746	0	32874	32644	
2747	0	32772	32239	
2748	0	32774	32155	
2749	0	32772	32560	
2750	0	32780	32341	
2751	0	32798	32686	
2752	0	32852	32702	
2753	0	32789	32572	
2754	0	32790	32413	
2755	0	32846	32346	
2756	0	32784	32255	
2757	0	32762	32215	
2758	0	32766	31974	
2759	0	32780	31942	
2760	0	32848	32143	
2761	0	32676	32219	
2762	0	32676	32446	
2763	0	32692	32691	
2764	0	32808	32746	
2765	0	32780	32479	
2766	0	32876	32215	
2767	0	32864	32283	
2768	0	32820	32309	
2769	0	32740	32203	
2770	0	32708	32351	
2771	0	32740	32593	
2772	0	32868	32773	
2773	0	32700	32423	
2774	0	32760	32195	
2775	0	32836	32743	
2776	0	32868	32646	
2777	0	32844	32684	
2778	0	32740	32687	
2779	0	32758	32428	
2780	0	32727	32487	
2781	0	32538	32731	
2782	0	32486	32619	
2783	0	32560	32414	
2784	0	32644	32455	
2785	0	32719	32512	
2786	0	32748	32551	
2787	0	32818	32346	
2788	0	32872	31514	
2789	0	32862	31895	
2790	0	32778	32431	
2791	0	32756	32819	
2792	0	32784	32519	
2793	0	32828	32343	
2794	0	32820	32751	
2795	0	32773	32848	
2796	0	32794	32676	
2797	0	32816	31868	
2798	0	32726	31791	
2799	0	32847	32820	
2800	0	32856	33044	
2801	0	32864	32390	
2802	0	32902	31863	
2803	0	32820	31806	
2804	0	32600	32287	
2805	0	32658	32455	
2806	0	32800	32375	
2807	0	32948	31994	
2808	0	33121	32740	
2809	0	32912	32367	
2810	0	32860	33031	
2811	0	32670	32878	
2812	0	32728	32516	
2813	0	32746	32422	
2814	0	32856	32030	
2815	0	32876	31531	
2816	0	33224	32217	
2817	0	33140	32495	
2818	0	33172	32656	
2819	0	33356	32839	
2820	0	33232	32570	
2821	0	33100	32356	
2822	0	33146	32459	
2823	0	32956	32576	
2824	0	32844	32599	
2825	0	32676	32228	
2826	0	32650	32135	
2827	0	32628	32510	
2828	0	32775	32623	
2829	0	32766	32343	
2830	0	32772	32039	
2831	0	32676	32100	
2832	0	32817	32284	
2833	0	32853	32596	
2834	0	32798	33030	
2835	0	32764	32519	
2836	0	32822	32286	
2837	0	32798	32228	
2838	0	32792	32333	
2839	0	32780	32453	
2840	0	32856	32455	
2841	0	32830	32486	
2842	0	32816	32227	
2843	0	32856	32401	
2844	0	32924	32414	
2845	0	32752	32519	
2846	0	32752	32199	
2847	0	32718	31460	
2848	0	32748	32562	
2849	0	32904	32839	
2850	0	32924	32690	
2851	0	32894	32503	
2852	0	32876	31879	
2853	0	32740	32366	
2854	0	32708	32919	
2855	0	32692	32775	
2856	0	32801	32105	
2857	0	32800	32375	
2858	0	32846	32703	
2859	0	32824	32539	
2860	0	32828	32692	
2861	0	32822	31970	
2862	0	32921	31957	
2863	0	32820	32263	
2864	0	32836	32844	
2865	0	32692	32935	
2866	0	32854	32542	
2867	0	32824	32629	
2868	0	32712	32868	
2869	0	32768	32388	
2870	0	32690	32071	
2871	0	32676	32357	
2872	0	32709	32559	
2873	0	32636	32135	
2874	0	32700	32606	
2875	0	32822	32454	
2876	0	32775	31887	
2877	0	32732	31955	
2878	0	32716	32309	
2879	0	32724	32615	
2880	0	32928	32516	
2881	0	32724	32327	
2882	0	32734	32482	
2883	0	32812	32662	
2884	0	32792	32367	
2885	0	32752	32127	
2886	0	32842	32519	
2887	0	32728	32729	
2888	0	32760	32503	
2889	0	32706	32424	
2890	0	32868	32462	
2891	0	32816	32462	
2892	0	32832	33007	
2893	0	32750	32878	
2894	0	32744	31956	
2895	0	32716	31906	
2896	0	32612	32412	
2897	0	32826	32364	
2898	0	32948	32055	
2899	0	32816	32222	
2900	0	32814	32239	
2901	0	32770	32286	
2902	0	32796	32558	
2903	0	32844	32647	
2904	0	32768	32556	
2905	0	32800	32479	
2906	0	32796	32484	
2907	0	32716	32583	
2908	0	32856	32686	
2909	0	32756	32350	
2910	0	32740	31927	
2911	0	32830	31943	
2912	0	32708	32239	
2913	0	32864	32516	
2914	0	32842	32975	
2915	0	32682	32974	
2916	0	32676	32334	
2917	0	32764	31933	
2918	0	32842	32253	
2919	0	32752	32334	
2920	0	32760	32367	
2921	0	32468	32166	
2922	0	32440	32255	
2923	0	32316	32256	
2924	0	32148	32308	
2925	0	32100	32550	
2926	0	31996	32412	
2927	0	31988	32702	
2928	0	31780	32878	
2929	0	31724	32828	
2930	0	31802	32415	
2931	0	31844	32070	
2932	0	31856	31940	
2933	0	31902	32158	
2934	0	31824	32399	
2935	0	31834	32439	
2936	0	32246	32294	
2937	0	32840	32551	
2938	0	33214	32775	
2939	0	33502	32542	
2940	0	33888	32618	
2941	0	34108	32382	
2942	0	34240	32036	
2943	0	34472	32416	
2944	0	34504	32455	
2945	0	34548	32600	
2946	0	34448	32668	
2947	0	34848	32364	
2948	0	35004	31994	
2949	0	35704	32258	
2950	0	35744	32558	
2951	0	35316	32367	
2952	0	35140	32135	
2953	0	35424	32294	
2954	0	36020	32474	
2955	0	35856	32631	
2956	0	35618	32725	
2957	0	34884	32471	
2958	0	33778	32168	
2959	0	32564	32554	
2960	0	31808	33067	
2961	0	31318	32711	
2962	0	30774	32519	
2963	0	30484	32839	
2964	0	30694	32796	
2965	0	31112	32515	
2966	0	31130	32422	
2967	0	30980	32188	
2968	0	30937	31892	
2969	0	30964	31871	
2970	0	31116	32326	
2971	0	31160	32551	
2972	0	31264	32871	
2973	0	31168	32716	
2974	0	30968	32647	
2975	0	31018	32582	
2976	0	30952	32272	
2977	0	30718	32433	
2978	0	30884	32655	
2979	0	31032	32106	
2980	0	31079	31665	
2981	0	31372	32138	
2982	0	31672	32447	
2983	0	31952	32398	
2984	0	32278	32639	
2985	0	32482	32292	
2986	0	32792	32701	
2987	0	32944	32191	
2988	0	33154	32206	
2989	0	33294	32606	
2990	0	33328	32582	
2991	0	33596	32358	
2992	0	33660	31940	
2993	0	33674	32495	
2994	0	33795	32460	
2995	0	33638	32263	
2996	0	33506	32263	
2997	0	33444	32358	
2998	0	33420	32316	
2999	0	33320	32590	
3000	0	33444	33263	
3001	0	33506	32830	
3002	0	33054	32381	
3003	0	33132	32159	
3004	0	33114	32306	
3005	0	33056	32244	
3006	0	33104	32263	
3007	0	33062	31799	
3008	0	32976	32135	
3009	0	33006	32468	
3010	0	32828	32758	
3011	0	32888	32615	
3012	0	32824	32501	
3013	0	32844	32353	
3014	0	32834	32449	
3015	0	32806	32747	
3016	0	32852	32604	
3017	0	32710	32060	
3018	0	32880	31957	
3019	0	32816	32286	
3020	0	32748	32988	
3021	0	32826	32916	
3022	0	32756	32359	
3023	0	32888	32174	
3024	0	32778	32428	
3025	0	32892	32311	
3026	0	32924	32413	
3027	0	32832	32103	
3028	0	32842	32135	
3029	0	32878	32119	
3030	0	32802	32263	
3031	0	32900	32411	
3032	0	32860	32764	
3033	0	32801	33079	
3034	0	32804	32487	
3035	0	32644	32420	
3036	0	32724	32518	
3037	0	32810	32391	
3038	0	32896	32023	
3039	0	32828	32234	
3040	0	32878	32754	
3041	0	32764	32759	
3042	0	32686	32665	
3043	0	32792	32669	
3044	0	32896	32671	
3045	0	32838	32985	
3046	0	32832	32693	
3047	0	32810	32628	
3048	0	32753	32684	
3049	0	32806	32566	
3050	0	32822	32407	
3051	0	32832	32478	
3052	0	32812	31950	
3053	0	32840	32154	
3054	0	32760	31961	
3055	0	32744	32243	
3056	0	32708	32559	
3057	0	32660	32977	
3058	0	32770	33076	
3059	0	32792	32428	
3060	0	32834	32432	
3061	0	32818	32618	
3062	0	32724	32450	
3063	0	32864	31782	
3064	0	32892	32716	
3065	0	32860	32959	
3066	0	32842	32791	
3067	0	32846	32327	
3068	0	32708	32975	
3069	0	32841	33114	
3070	0	32768	32916	
3071	0	32812	32706	
3072	0	32760	32662	
3073	0	32820	32567	
3074	0	32918	32366	
3075	0	32834	32356	
3076	0	32788	32074	
3077	0	32924	31766	
3078	0	32790	32191	
3079	0	32652	32263	
3080	0	32802	32775	
3081	0	32828	32556	
3082	0	32794	32347	
3083	0	32886	32830	
3084	0	32798	32672	
3085	0	32832	32238	
3086	0	32700	32182	
3087	0	32648	32414	
3088	0	32786	32455	
3089	0	32864	32314	
3090	0	32756	32231	
3091	0	32730	32167	
3092	0	32712	32386	
3093	0	32784	32759	
3094	0	32796	33186	
3095	0	32814	32950	
3096	0	32898	32502	
3097	0	32872	32164	
3098	0	32814	31772	
3099	0	32730	31939	
3100	0	32820	32654	
3101	0	32830	32955	
3102	0	32756	32709	
3103	0	32760	32828	
3104	0	32868	32725	
3105	0	32911	32471	
3106	0	32894	32334	
3107	0	32588	32023	
3108	0	32805	31329	
3109	0	32824	31550	
3110	0	32796	32158	
3111	0	32880	32390	
3112	0	32832	32364	
3113	0	32724	32263	
3114	0	32800	32602	
3115	0	32836	32604	
3116	0	32720	32500	
3117	0	32766	32597	
3118	0	32800	32462	
3119	0	32798	32468	
3120	0	32804	32502	
3121	0	32724	32263	
3122	0	32804	32263	
3123	0	32782	32107	
3124	0	32774	31903	
3125	0	32759	32119	
3126	0	32884	32391	
3127	0	32908	32447	
3128	0	32992	32135	
3129	0	32888	32151	
3130	0	32868	32229	
3131	0	32780	32263	
3132	0	32684	32175	
3133	0	32820	32162	
3134	0	32866	32431	
3135	0	32872	32877	
3136	0	32832	32363	
3137	0	32840	32575	
3138	0	32680	32071	
3139	0	32704	32191	
3140	0	32828	31807	
3141	0	32780	32208	
3142	0	32840	32417	
3143	0	32836	32482	
3144	0	32914	32692	
3145	0	32848	32385	
3146	0	32905	32797	
3147	0	32912	32235	
3148	0	32670	32118	
3149	0	32726	32230	
3150	0	32693	33060	
3151	0	32784	32699	
3152	0	32852	32922	
3153	0	32826	32332	
3154	0	32780	32551	
3155	0	32764	31703	
3156	0	32782	32715	
3157	0	32956	32473	
3158	0	32784	31899	
3159	0	32792	32527	
3160	0	32772	32263	
3161	0	32816	32450	
3162	0	32768	32691	
3163	0	32836	32182	
3164	0	32758	32596	
3165	0	32908	32540	
3166	0	32840	32199	
3167	0	32860	32647	
3168	0	32974	32263	
3169	0	32884	32718	
3170	0	32832	32428	
3171	0	32832	32327	
3172	0	32836	32123	
3173	0	32728	32070	
3174	0	32756	32630	
3175	0	32902	33071	
3176	0	32844	32190	
3177	0	32775	32236	
3178	0	32864	32102	
3179	0	32908	32139	
3180	0	32872	32642	
3181	0	32784	32814	
3182	0	32812	32967	
3183	0	32822	32862	
3184	0	32868	31751	
3185	0	32736	31367	
3186	0	32878	32375	
3187	0	32900	33852	
3188	0	32728	32614	
3189	0	32724	32667	
3190	0	32852	32287	
3191	0	32860	32352	
3192	0	32878	32106	
3193	0	33045	32383	
3194	0	32876	32227	
3195	0	32826	32631	
3196	0	32705	32263	
3197	0	32775	32543	
3198	0	32684	32061	
3199	0	32728	32404	
3200	0	32770	32407	
3201	0	32760	32326	
3202	0	32860	32107	
3203	0	32812	32209	
3204	0	32858	32407	
3205	0	32884	32679	
3206	0	32808	33120	
3207	0	32740	32439	
3208	0	32756	32463	
3209	0	32757	32134	
3210	0	32856	32485	
3211	0	32756	32891	
3212	0	32700	32102	
3213	0	32751	32496	
3214	0	32892	32349	
3215	0	32904	32263	
3216	0	32790	32719	
3217	0	32693	32380	
3218	0	32744	32089	
3219	0	32736	32372	
3220	0	32620	32143	
3221	0	32820	32258	
3222	0	32636	32583	
3223	0	32800	32444	
3224	0	32886	32518	
3225	0	32788	32260	
3226	0	32772	32703	
3227	0	32805	32366	
3228	0	32826	32686	
3229	0	32670	32228	
3230	0	32838	32372	
3231	0	32784	32542	
3232	0	32812	32247	
3233	0	32878	32447	
3234	0	32612	32282	
3235	0	32770	32456	
3236	0	32748	32879	
3237	0	32670	32505	
3238	0	32632	32320	
3239	0	32724	32791	
3240	0	32740	32706	
3241	0	32783	32239	
3242	0	32848	32199	
3243	0	32860	32342	
3244	0	32934	32327	
3245	0	32906	32678	
3246	0	32668	32644	
3247	0	32716	31935	
3248	0	32730	31426	
3249	0	32806	32087	
3250	0	32756	32897	
3251	0	32740	32615	
3252	0	32732	32318	
3253	0	32794	31895	
3254	0	32900	32911	
3255	0	32830	32951	
3256	0	32886	33028	
3257	0	32854	32640	
3258	0	32776	32135	
3259	0	32808	32872	
3260	0	32772	31982	
3261	0	32820	32292	
3262	0	32800	32447	
3263	0	32884	32327	
3264	0	32740	32716	
3265	0	32706	31964	
3266	0	32730	32101	
3267	0	32702	32479	
3268	0	32775	32511	
3269	0	32900	32550	
3270	0	32932	32259	
3271	0	32828	32596	
3272	0	32830	32183	
3273	0	32744	32226	
3274	0	32748	32683	
3275	0	32734	32306	
3276	0	32790	32647	
3277	0	32810	32655	
3278	0	32732	32976	
3279	0	32672	32591	
3280	0	32718	32411	
3281	0	32616	32419	
3282	0	32460	32252	
3283	0	32628	32162	
3284	0	32560	32054	
3285	0	32668	31943	
3286	0	32684	32111	
3287	0	32696	32741	
3288	0	32708	32954	
3289	0	32705	32647	
3290	0	33016	32263	
3291	0	32701	32334	
3292	0	32852	32438	
3293	0	32762	32066	
3294	0	32800	32491	
3295	0	32902	32573	
3296	0	32908	32339	
3297	0	32948	32746	
3298	0	32874	32866	
3299	0	32908	32239	
3300	0	32878	32108	
3301	0	32852	31939	
3302	0	32704	32487	
3303	0	32576	32142	
3304	0	32708	32158	
3305	0	32976	32887	
3306	0	33160	32063	
3307	0	32888	32088	
3308	0	32748	32767	
3309	0	32696	33982	
3310	0	32586	32574	
3311	0	32600	32638	
3312	0	32768	32170	
3313	0	32896	32479	
3314	0	33074	32455	
3315	0	33008	32486	
3316	0	33232	32388	
3317	0	33292	32447	
3318	0	33504	32638	
3319	0	33386	32636	
3320	0	33116	32614	
3321	0	32956	32140	
3322	0	32906	32655	
3323	0	32750	32707	
3324	0	32710	32396	
3325	0	32608	31841	
3326	0	32582	32547	
3327	0	32564	32410	
3328	0	32720	32283	
3329	0	32824	32954	
3330	0	32920	32840	
3331	0	32873	32711	
3332	0	32804	32767	
3333	0	32684	32631	
3334	0	32764	32455	
3335	0	32836	31989	
3336	0	32744	32257	
3337	0	32802	32283	
3338	0	32798	32291	
3339	0	32804	32165	
3340	0	32904	31973	
3341	0	32870	31935	
3342	0	32780	32638	
3343	0	32748	32967	
3344	0	32624	32474	
3345	0	32728	32390	
3346	0	32804	32177	
3347	0	32864	32543	
3348	0	32877	32700	
3349	0	32908	32517	
3350	0	32686	32727	
3351	0	32814	32671	
3352	0	32886	32666	
3353	0	32640	32407	
3354	0	32740	32331	
3355	0	32810	32383	
3356	0	32760	32438	
3357	0	32866	32293	
3358	0	32848	32554	
3359	0	32772	32745	
3360	0	32804	32763	
3361	0	32804	32495	
3362	0	32758	32300	
3363	0	32738	32223	
3364	0	32765	32292	
3365	0	32888	32195	
3366	0	32800	32285	
3367	0	32724	32223	
3368	0	32666	32190	
3369	0	32700	32474	
3370	0	32944	32474	
3371	0	32684	32662	
3372	0	32602	32703	
3373	0	32688	32707	
3374	0	32864	32677	
3375	0	32776	32564	
3376	0	32734	32193	
3377	0	32716	32454	
3378	0	32810	32860	
3379	0	32734	32566	
3380	0	32730	32437	
3381	0	32764	32399	
3382	0	32876	32545	
3383	0	32836	32476	
3384	0	32834	32390	
3385	0	32735	32315	
3386	0	32664	32095	
3387	0	32716	32364	
3388	0	32718	32918	
3389	0	32926	32611	
3390	0	32794	32220	
3391	0	32820	31847	
3392	0	32856	31991	
3393	0	32728	32278	
3394	0	32752	32295	
3395	0	32644	32428	
3396	0	32724	32391	
3397	0	32696	32391	
3398	0	32777	32424	
3399	0	32820	32581	
3400	0	32775	32233	
3401	0	32912	32131	
3402	0	32788	32465	
3403	0	32888	32502	
3404	0	32857	32358	
3405	0	32900	32439	
3406	0	32864	32654	
3407	0	32820	32498	
3408	0	32698	32326	
3409	0	32782	32255	
3410	0	32748	32453	
3411	0	32812	32710	
3412	0	32750	32542	
3413	0	32810	32739	
3414	0	32826	32230	
3415	0	32856	32157	
3416	0	32704	31941	
3417	0	32608	31974	
3418	0	32552	32371	
3419	0	32424	32556	
3420	0	32324	32231	
3421	0	32262	31876	
3422	0	32076	32244	
3423	0	32150	32590	
3424	0	32161	32839	
3425	0	32148	32082	
3426	0	31784	32223	
3427	0	31540	32348	
3428	0	31776	33077	
3429	0	31882	32404	
3430	0	31890	32692	
3431	0	31768	31695	
3432	0	31688	32278	
3433	0	31766	32185	
3434	0	32248	32031	
3435	0	32872	32199	
3436	0	33126	32983	
3437	0	33488	32671	
3438	0	33844	32486	
3439	0	34058	33156	
3440	0	34216	32358	
3441	0	34564	32624	
3442	0	34572	32236	
3443	0	34596	32192	
3444	0	34416	32050	
3445	0	34860	32143	
3446	0	35236	32558	
3447	0	35828	32350	
3448	0	35598	32582	
3449	0	35380	32486	
3450	0	35240	32318	
3451	0	35690	32673	
3452	0	36196	32400	
3453	0	36128	32706	
3454	0	35656	32660	
3455	0	34820	32316	
3456	0	33736	32711	
3457	0	32746	32365	
3458	0	31900	32606	
3459	0	31225	32206	
3460	0	30748	32064	
3461	0	30412	32354	
3462	0	30576	32223	
3463	0	30904	32335	
3464	0	31052	32247	
3465	0	30910	32674	
3466	0	30736	32192	
3467	0	30828	32679	
3468	0	30977	32260	
3469	0	31252	32647	
3470	0	31294	32263	
3471	0	31268	32831	
3472	0	31196	32351	
3473	0	31008	32732	
3474	0	30900	32231	
3475	0	30884	32639	
3476	0	30994	32284	
3477	0	31008	32692	
3478	0	31130	32106	
3479	0	31224	32263	
3480	0	31490	32007	
3481	0	31864	32336	
3482	0	32042	32838	
3483	0	32390	32242	
3484	0	32686	32029	
3485	0	32872	32340	
3486	0	33073	32207	
3487	0	33414	32489	
3488	0	33576	32710	
3489	0	33700	32742	
3490	0	33688	32362	
3491	0	33652	32287	
3492	0	33628	32555	
3493	0	33664	32439	
3494	0	33588	32414	
3495	0	33524	32405	
3496	0	33500	32338	
3497	0	33377	32063	
3498	0	33394	31478	
3499	0	33268	31687	
3500	0	33230	33132	
3501	0	33152	33263	
3502	0	33146	32042	
3503	0	33092	32108	
3504	0	33020	32452	
3505	0	33036	32358	
3506	0	33008	32532	
3507	0	32945	32658	
3508	0	32940	32473	
3509	0	32872	32519	
3510	0	32948	32959	
3511	0	32912	32682	
3512	0	32750	32342	
3513	0	32748	32146	
3514	0	32848	32356	
3515	0	32824	32156	
3516	0	32836	32022	
3517	0	32826	32151	
3518	0	32832	32260	
3519	0	32824	32135	
3520	0	32804	32499	
3521	0	32868	32661	
3522	0	32786	32495	
3523	0	32842	32452	
3524	0	32916	32410	
3525	0	32800	31983	
3526	0	32788	31679	
3527	0	32740	32839	
3528	0	32804	33250	
3529	0	32700	32942	
3530	0	32760	32306	
3531	0	32824	32189	
3532	0	32764	32754	
3533	0	32814	32719	
3534	0	32888	32437	
3535	0	32842	32036	
3536	0	32814	32551	
3537	0	32748	32903	
3538	0	32745	32710	
3539	0	32776	32174	
3540	0	32808	31722	
3541	0	32776	32154	
3542	0	32670	32149	
3543	0	32892	32196	
3544	0	32885	32351	
3545	0	32760	32710	
3546	0	32783	32518	
3547	0	32760	32191	
3548	0	32756	32543	
3549	0	32824	32674	
3550	0	32805	32255	
3551	0	32860	32594	
3552	0	32842	32852	
3553	0	32836	32482	
3554	0	32929	32549	
3555	0	32868	32495	
3556	0	32804	32124	
3557	0	32791	32247	
3558	0	32750	32155	
3559	0	32753	32085	
3560	0	32728	32075	
3561	0	32876	32334	
3562	0	32780	31969	
3563	0	32812	32036	
3564	0	32760	32263	
3565	0	32804	32660	
3566	0	32791	32743	
3567	0	32780	32751	
3568	0	32894	32647	
3569	0	32896	32308	
3570	0	32808	32134	
3571	0	32816	32306	
3572	0	32752	32756	
3573	0	32752	32558	
3574	0	32752	32236	
3575	0	32788	32079	
3576	0	32714	32672	
3577	0	32836	32727	
3578	0	32832	32671	
3579	0	32812	32439	
3580	0	32712	31495	
3581	0	32832	31863	
3582	0	32800	32391	
3583	0	32852	32807	
3584	0	32765	33140	
3585	0	32760	32716	
3586	0	32828	32560	
3587	0	32840	32700	
3588	0	32856	32102	
3589	0	32748	31803	
3590	0	32708	32263	
3591	0	32756	32611	
3592	0	32732	32159	
3593	0	32804	32263	
3594	0	32680	32874	
3595	0	32710	33073	
3596	0	32764	32627	
3597	0	32806	32287	
3598	0	32916	31926	
3599	0	32880	32134	
3600	0	32788	32751	
3601	0	32811	32914	
3602	0	32684	32461	
3603	0	32768	31836	
3604	0	32816	31791	
3605	0	32862	32350	
3606	0	32788	32226	
3607	0	32744	31786	
3608	0	32820	32864	
3609	0	32816	33244	
3610	0	32784	33022	
3611	0	32872	32601	
3612	0	32820	32353	
3613	0	32653	31863	
3614	0	32804	31708	
3615	0	32824	32150	
3616	0	32854	32620	
3617	0	32812	32683	
3618	0	32886	32475	
3619	0	32800	32331	
3620	0	32812	32170	
3621	0	32792	32286	
3622	0	32748	32447	
3623	0	32844	32738	
3624	0	32762	32475	
3625	0	32904	32512	
3626	0	32926	32448	
3627	0	32840	32175	
3628	0	32750	32454	
3629	0	32892	32764	
3630	0	32900	32512	
3631	0	32804	32775	
3632	0	32894	32759	
3633	0	32784	32511	
3634	0	32790	32495	
3635	0	32768	32358	
3636	0	32732	32485	
3637	0	32800	32431	
3638	0	32754	31623	
3639	0	32798	31862	
3640	0	32820	32348	
3641	0	32772	32597	
3642	0	32796	32570	
3643	0	32788	32431	
3644	0	32816	32254	
3645	0	32888	32591	
3646	0	33008	32695	
3647	0	32836	32711	
3648	0	32758	32591	
3649	0	32750	32426	
3650	0	32760	32094	
3651	0	32770	32115	
3652	0	32820	32359	
3653	0	32798	32423	
3654	0	32840	32519	
3655	0	32834	32412	
3656	0	32870	32535	
3657	0	32836	32666	
3658	0	32792	32371	
3659	0	32860	32359	
3660	0	32896	32486	
3661	0	32842	32470	
3662	0	32806	32420	
3663	0	32788	32831	
3664	0	32780	32676	
3665	0	32796	32165	
3666	0	32812	32227	
3667	0	32802	32342	
3668	0	32822	31884	
3669	0	32952	32007	
3670	0	32810	31971	
3671	0	32708	32236	
3672	0	32840	32351	
3673	0	32838	33103	
3674	0	32828	32958	
3675	0	32917	32600	
3676	0	32906	32079	
3677	0	32838	32197	
3678	0	32801	32439	
3679	0	32900	31873	
3680	0	32804	32149	
3681	0	32780	32895	
3682	0	32853	32916	
3683	0	32946	32636	
3684	0	32836	32303	
3685	0	32928	31815	
3686	0	32924	32236	
3687	0	32940	33084	
3688	0	32836	32818	
3689	0	32722	32455	
3690	0	32760	32324	
3691	0	32926	32066	
3692	0	32828	31492	
3693	0	32796	32107	
3694	0	32804	32695	
3695	0	32886	33079	
3696	0	32836	32727	
3697	0	32762	32255	
3698	0	32784	32219	
3699	0	32768	32340	
3700	0	32764	32703	
3701	0	32812	32583	
3702	0	32757	32391	
3703	0	32812	32250	
3704	0	32774	32228	
3705	0	32764	32331	
3706	0	32824	32563	
3707	0	32740	32674	
3708	0	32798	32446	
3709	0	32868	32235	
3710	0	32884	32407	
3711	0	32850	32638	
3712	0	32842	32371	
3713	0	32778	32127	
3714	0	32856	32364	
3715	0	32702	32442	
3716	0	32672	32062	
3717	0	32740	32023	
3718	0	32672	32180	
3719	0	32688	32487	
3720	0	32702	32613	
3721	0	32692	32209	
3722	0	32826	32500	
3723	0	32778	32932	
3724	0	32804	32737	
3725	0	32824	32294	
3726	0	32768	32279	
3727	0	32750	32398	
3728	0	32756	32580	
3729	0	32750	32367	
3730	0	32762	32194	
3731	0	32736	32260	
3732	0	32796	32518	
3733	0	32884	32786	
3734	0	32756	32446	
3735	0	32796	32197	
3736	0	32844	32135	
3737	0	32848	32287	
3738	0	32764	32638	
3739	0	32730	32467	
3740	0	32684	32444	
3741	0	32812	32402	
3742	0	32898	32263	
3743	0	32760	32132	
3744	0	32688	32335	
3745	0	32774	32647	
3746	0	32708	32465	
3747	0	32736	32370	
3748	0	32804	32519	
3749	0	32761	31934	
3750	0	32832	31931	
3751	0	32774	32070	
3752	0	32692	33052	
3753	0	32831	33207	
3754	0	32968	32903	
3755	0	32832	32366	
3756	0	32764	32338	
3757	0	32868	32332	
3758	0	32876	32451	
3759	0	32818	32583	
3760	0	32708	32314	
3761	0	32806	32072	
3762	0	32832	32191	
3763	0	32754	32416	
3764	0	32666	32718	
3765	0	32746	32806	
3766	0	32748	32291	
3767	0	32678	32135	
3768	0	32726	32283	
3769	0	32624	32086	
3770	0	32484	32436	
3771	0	32558	32403	
3772	0	32684	32711	
3773	0	32704	33127	
3774	0	32721	31980	
3775	0	32761	31615	
3776	0	32636	33138	
3777	0	32774	33181	
3778	0	32872	32206	
3779	0	32872	31685	
3780	0	32788	32134	
3781	0	32872	32066	
3782	0	32856	32378	
3783	0	32824	32612	
3784	0	32858	32842	
3785	0	32782	32727	
3786	0	32820	32409	
3787	0	32900	32150	
3788	0	32976	32332	
3789	0	32981	32391	
3790	0	32832	32582	
3791	0	32654	32533	
3792	0	32652	32231	
3793	0	32780	32407	
3794	0	32920	32643	
3795	0	32884	32726	
3796	0	32980	32577	
3797	0	32942	32435	
3798	0	32704	32243	
3799	0	32692	32416	
3800	0	32704	32551	
3801	0	32660	32642	
3802	0	32782	32494	
3803	0	32906	32279	
3804	0	32992	32132	
3805	0	33054	32166	
3806	0	33212	32262	
3807	0	33396	32293	
3808	0	33398	32510	
3809	0	33264	32391	
3810	0	32948	32423	
3811	0	32812	32773	
3812	0	32773	32763	
3813	0	32642	32634	
3814	0	32645	32663	
3815	0	32698	32871	
3816	0	32812	32540	
3817	0	32884	32073	
3818	0	32932	32156	
3819	0	32748	32191	
3820	0	32828	32251	
3821	0	32883	32325	
3822	0	32764	32535	
3823	0	32780	32519	
3824	0	32864	32463	
3825	0	32823	32316	
3826	0	32816	32238	
3827	0	32828	32162	
3828	0	32768	32452	
3829	0	32689	32485	
3830	0	32796	32463	
3831	0	32797	32359	
3832	0	32716	32290	
3833	0	32752	32431	
3834	0	32752	32615	
3835	0	32734	32423	
3836	0	32785	32127	
3837	0	32850	32364	
3838	0	32828	32447	
3839	0	32880	32519	
3840	0	32852	32767	
3841	0	32712	32711	
3842	0	32740	32511	
3843	0	32916	32391	
3844	0	32820	32399	
3845	0	32734	32551	
3846	0	32814	32346	
3847	0	32792	32436	
3848	0	32876	32535	
3849	0	32868	32660	
3850	0	32794	32876	
3851	0	32864	32567	
3852	0	32842	31838	
3853	0	32766	31439	
3854	0	32678	31655	
3855	0	32916	32324	
3856	0	32896	32510	
3857	0	32775	32487	
3858	0	32747	32775	
3859	0	32624	32924	
3860	0	32788	31879	
3861	0	32832	32255	
3862	0	32614	32559	
3863	0	32760	32799	
3864	0	32748	33022	
3865	0	32708	32918	
3866	0	32648	32295	
3867	0	32712	32067	
3868	0	32832	32494	
3869	0	32730	32548	
3870	0	32740	32263	
3871	0	32752	32775	
3872	0	32760	32364	
3873	0	32712	32231	
3874	0	32706	32354	
3875	0	32764	32167	
3876	0	32708	32207	
3877	0	32761	32595	
3878	0	32820	32708	
3879	0	32778	32292	
3880	0	32785	32129	
3881	0	32855	32471	
3882	0	32868	32855	
3883	0	32744	32434	
3884	0	32796	32099	
3885	0	32784	32387	
3886	0	32761	32739	
3887	0	32782	32431	
3888	0	32928	32335	
3889	0	32840	32508	
3890	0	32804	32725	
3891	0	32816	32687	
3892	0	32796	32351	
3893	0	32820	32044	
3894	0	32704	32298	
3895	0	32818	32684	
3896	0	32801	32367	
3897	0	32800	31540	
3898	0	32860	32343	
3899	0	32776	32959	
3900	0	32752	32711	
3901	0	32800	32599	
3902	0	32756	32773	
3903	0	32764	32427	
3904	0	32760	32287	
3905	0	32796	32687	
3906	0	32672	32446	
3907	0	32744	32213	
3908	0	32636	32506	
3909	0	32544	32079	
3910	0	32350	32263	
3911	0	32278	32246	
3912	0	32272	32102	
3913	0	32148	32254	
3914	0	32106	32740	
3915	0	31936	32606	
3916	0	31864	32346	
3917	0	31826	32519	
3918	0	31852	32574	
3919	0	31922	32247	
3920	0	32126	32238	
3921	0	31888	32194	
3922	0	31956	32263	
3923	0	32308	32276	
3924	0	32684	32471	
3925	0	32926	32579	
3926	0	33164	32466	
3927	0	33520	32188	
3928	0	33924	32615	
3929	0	33984	32462	
3930	0	34112	32281	
3931	0	34276	32607	
3932	0	34408	32746	
3933	0	34169	32391	
3934	0	34108	32356	
3935	0	34588	32484	
3936	0	35024	32772	
3937	0	35284	32657	
3938	0	34896	32440	
3939	0	34652	32223	
3940	0	34942	32367	
3941	0	35640	32547	
3942	0	35748	32400	
3943	0	35632	32227	
3944	0	34954	32706	
3945	0	34568	32593	
3946	0	33824	32295	
3947	0	32636	32613	
3948	0	32132	32263	
3949	0	31668	32251	
3950	0	31162	32660	
3951	0	30878	32658	
3952	0	31062	32350	
3953	0	31244	32471	
3954	0	31142	32714	
3955	0	31064	32807	
3956	0	31009	32421	
3957	0	31000	32068	
3958	0	31140	32610	
3959	0	31128	32511	
3960	0	31380	31839	
3961	0	31532	32215	
3962	0	31416	32431	
3963	0	31428	32546	
3964	0	31412	32236	
3965	0	31360	31870	
3966	0	31265	32679	
3967	0	31348	32885	
3968	0	31318	32419	
3969	0	31464	32158	
3970	0	31553	32359	
3971	0	31854	32533	
3972	0	31910	32551	
3973	0	32352	32540	
3974	0	32724	32614	
3975	0	32919	32177	
3976	0	32948	31434	
3977	0	33070	32876	
3978	0	33278	33002	
3979	0	33498	32750	
3980	0	33492	32575	
3981	0	33468	32119	
3982	0	33644	32045	
3983	0	33544	32148	
3984	0	33502	32538	
3985	0	33584	32708	
3986	0	33448	32554	
3987	0	33426	31862	
3988	0	33260	32071	
3989	0	33208	32422	
3990	0	33156	32485	
3991	0	33080	32495	
3992	0	33160	32207	
3993	0	33040	32567	
3994	0	32940	32838	
3995	0	32912	32620	
3996	0	32984	32370	
3997	0	32948	32412	
3998	0	32854	32566	
3999	0	32924	32467	
4000	0	32928	32263	
4001	0	32852	32262	
4002	0	32924	32004	
4003	0	32892	31942	
4004	0	32912	32263	
4005	0	32792	32711	
4006	0	32832	33166	
4007	0	32782	32908	
4008	0	32764	32391	
4009	0	32818	31900	
4010	0	32762	32007	
4011	0	32788	32580	
4012	0	32804	32543	
4013	0	32852	32351	
4014	0	32704	32434	
4015	0	32764	32418	
4016	0	32798	32458	
4017	0	32724	32471	
4018	0	32769	32570	
4019	0	32854	32391	
4020	0	32832	32446	
4021	0	32844	32695	
4022	0	32967	32463	
4023	0	32844	32180	
4024	0	32746	32135	
4025	0	32785	32251	
4026	0	32808	32242	
4027	0	32696	32323	
4028	0	32774	32461	
4029	0	32799	32398	
4030	0	32798	32458	
4031	0	32952	31870	
4032	0	32820	31851	
4033	0	32801	32143	
4034	0	32806	32199	
4035	0	32820	32199	
4036	0	32772	32852	
4037	0	32796	33005	
4038	0	32844	32975	
4039	0	32797	32687	
4040	0	32740	32148	
4041	0	32892	32148	
4042	0	32741	32207	
4043	0	32772	32066	
4044	0	32896	32314	
4045	0	32876	32811	
4046	0	32760	32640	
4047	0	32746	32500	
4048	0	32841	32602	
4049	0	32676	32376	
4050	0	32756	32234	
4051	0	32775	32358	
4052	0	32732	32508	
4053	0	32856	32760	
4054	0	32758	32508	
4055	0	32900	32099	
4056	0	32926	32227	
4057	0	32846	32295	
4058	0	32836	32036	
4059	0	32788	31812	
4060	0	32808	32514	
4061	0	32732	32455	
4062	0	32778	32349	
4063	0	32768	32167	
4064	0	32786	32292	
4065	0	32887	32628	
4066	0	32860	32599	
4067	0	32834	32487	
4068	0	32820	32759	
4069	0	32724	32597	
4070	0	32680	32486	
4071	0	32740	32354	
4072	0	32724	32628	
4073	0	32756	32510	
4074	0	32756	32383	
4075	0	32828	32062	
4076	0	32880	31623	
4077	0	32744	32351	
4078	0	32760	32737	
4079	0	32804	32357	
4080	0	32766	31981	
4081	0	32758	32191	
4082	0	32920	33095	
4083	0	32712	33198	
4084	0	32764	32466	
4085	0	32884	32071	
4086	0	32848	32418	
4087	0	32812	32548	
4088	0	32788	32325	
4089	0	32820	32246	
4090	0	32760	32567	
4091	0	32780	32647	
4092	0	32773	32183	
4093	0	32768	32150	
4094	0	32762	32415	
4095	0	32754	32562	
4096	0	32836	32459	
4097	0	32844	32828	
4098	0	32776	32639	
4099	0	32740	32063	
4100	0	32740	32303	
4101	0	32770	32775	
4102	0	32845	32604	
4103	0	32932	32116	
4104	0	32850	32142	
4105	0	32770	32611	
4106	0	32784	32495	
4107	0	32734	31958	
4108	0	32766	32099	
4109	0	32844	32518	
4110	0	32744	32958	
4111	0	32858	32575	
4112	0	32868	32343	
4113	0	32900	32718	
4114	0	32986	32276	
4115	0	32844	32383	
4116	0	32778	32519	
4117	0	32801	32311	
4118	0	32828	32303	
4119	0	32784	32290	
4120	0	32738	32303	
4121	0	32896	32204	
4122	0	32788	32111	
4123	0	32789	32278	
4124	0	32800	32582	
4125	0	32792	32755	
4126	0	32790	32831	
4127	0	32852	32479	
4128	0	32856	32263	
4129	0	32856	32213	
4130	0	32866	32511	
4131	0	32676	32539	
4132	0	32822	32263	
4133	0	32820	32263	
4134	0	32916	32405	
4135	0	32788	32429	
4136	0	32884	32558	
4137	0	32836	32519	
4138	0	32812	32378	
4139	0	32912	32495	
4140	0	32918	32439	
4141	0	32720	32435	
4142	0	32744	32300	
4143	0	32796	32142	
4144	0	32788	32444	
4145	0	32742	32934	
4146	0	32756	32559	
4147	0	32764	32093	
4148	0	32864	31951	
4149	0	32928	32215	
4150	0	32854	32459	
4151	0	32782	32715	
4152	0	32788	32743	
4153	0	32704	32210	
4154	0	32748	32202	
4155	0	32804	32622	
4156	0	32884	32550	
4157	0	32836	32698	
4158	0	32789	32395	
4159	0	32788	32239	
4160	0	32774	32071	
4161	0	32830	32302	
4162	0	32904	32710	
4163	0	32800	32493	
4164	0	32854	32022	
4165	0	32862	32340	
4166	0	32900	32815	
4167	0	32764	32444	
4168	0	32834	32294	
4169	0	32820	32435	
4170	0	32796	32564	
4171	0	32716	32558	
4172	0	32780	32435	
4173	0	32856	32492	
4174	0	32764	32321	
4175	0	32780	32175	
4176	0	32826	32303	
4177	0	32844	32647	
4178	0	32796	32775	
4179	0	32796	32540	
4180	0	32768	32638	
4181	0	32846	32431	
4182	0	32913	32585	
4183	0	32924	31924	
4184	0	32920	31739	
4185	0	32832	32583	
4186	0	32840	32484	
4187	0	32824	32390	
4188	0	32836	32365	
4189	0	32885	32577	
4190	0	32842	32836	
4191	0	32816	32655	
4192	0	32718	32548	
4193	0	32812	31775	
4194	0	32756	32309	
4195	0	32780	32538	
4196	0	32730	32566	
4197	0	32740	32199	
4198	0	32726	32464	
4199	0	32689	32822	
4200	0	32860	32197	
4201	0	32812	32287	
4202	0	32842	32599	
4203	0	32820	32027	
4204	0	32688	32263	
4205	0	32686	32998	
4206	0	32608	32435	
4207	0	32760	32042	
4208	0	32830	32519	
4209	0	32836	32678	
4210	0	32908	32607	
4211	0	32831	32608	
4212	0	32772	32374	
4213	0	32678	32115	
4214	0	32748	32446	
4215	0	32849	32639	
4216	0	32734	32360	
4217	0	32796	32188	
4218	0	32828	32535	
4219	0	32704	32627	
4220	0	32832	32258	
4221	0	32897	32110	
4222	0	32790	32495	
4223	0	32794	32583	
4224	0	32740	32127	
4225	0	32764	31878	
4226	0	32788	32388	
4227	0	32794	32519	
4228	0	32753	32650	
4229	0	32624	32554	
4230	0	32751	32727	
4231	0	32839	32727	
4232	0	32804	32420	
4233	0	32818	32212	
4234	0	32896	32479	
4235	0	32692	32744	
4236	0	32772	32558	
4237	0	32896	32117	
4238	0	32806	31831	
4239	0	32816	32007	
4240	0	32818	32546	
4241	0	32804	32668	
4242	0	32844	32559	
4243	0	32760	32047	
4244	0	32774	32221	
4245	0	32750	32631	
4246	0	32736	32826	
4247	0	32868	32135	
4248	0	32860	32511	
4249	0	32800	33100	
4250	0	32696	33235	
4251	0	32792	32748	
4252	0	32776	32135	
4253	0	32756	31798	
4254	0	32710	32135	
4255	0	32628	32496	
4256	0	32613	32429	
4257	0	32572	32091	
4258	0	32524	31641	
4259	0	32640	31815	
4260	0	32728	32243	
4261	0	32656	32792	
4262	0	32752	32495	
4263	0	32756	32286	
4264	0	32916	32948	
4265	0	32928	32842	
4266	0	32812	32696	
4267	0	32876	32796	
4268	0	32912	32239	
4269	0	32856	32564	
4270	0	32740	32050	
4271	0	32714	32378	
4272	0	32806	32393	
4273	0	32920	32498	
4274	0	32900	32256	
4275	0	32864	32119	
4276	0	32984	32487	
4277	0	32780	32491	
4278	0	32566	32894	
4279	0	32630	32357	
4280	0	32628	32796	
4281	0	32728	32207	
4282	0	32828	32436	
4283	0	32912	32145	
4284	0	32884	31834	
4285	0	32972	32532	
4286	0	32700	32090	
4287	0	32616	32130	
4288	0	32694	32500	
4289	0	32772	32391	
4290	0	32880	32436	
4291	0	33064	32866	
4292	0	33143	32309	
4293	0	33160	32679	
4294	0	33340	32676	
4295	0	33270	32647	
4296	0	33114	32519	
4297	0	33104	32279	
4298	0	32913	32346	
4299	0	32880	32821	
4300	0	32804	32321	
4301	0	32716	32303	
4302	0	32770	32238	
4303	0	32766	32213	
4304	0	32804	32506	
4305	0	32858	32506	
4306	0	32736	32245	
4307	0	32816	32612	
4308	0	32884	32183	
4309	0	32772	32279	
4310	0	32680	32204	
4311	0	32769	32339	
4312	0	32681	32583	
4313	0	32860	32551	
4314	0	32840	31958	
4315	0	32800	32236	
4316	0	32752	32614	
4317	0	32798	32975	
4318	0	32804	32479	
4319	0	32840	32263	
4320	0	32816	32428	
4321	0	32911	32301	
4322	0	32824	32372	
4323	0	32772	32109	
4324	0	32848	32532	
4325	0	32904	32428	
4326	0	32980	32827	
4327	0	32804	32314	
4328	0	32692	32007	
4329	0	32764	31927	
4330	0	32838	32732	
4331	0	32804	32966	
4332	0	32762	32831	
4333	0	32712	32153	
4334	0	32740	31972	
4335	0	32728	32806	
4336	0	32814	32468	
4337	0	32720	32039	
4338	0	32712	31831	
4339	0	32708	32294	
4340	0	32676	33316	
4341	0	32717	32623	
4342	0	32764	32967	
4343	0	32732	32444	
4344	0	32685	32398	
4345	0	32704	32682	
4346	0	32806	32359	
4347	0	32760	32259	
4348	0	32704	32439	
4349	0	32798	32047	
4350	0	32810	32167	
4351	0	32829	32508	
4352	0	32812	31996	
4353	0	32823	32371	
4354	0	32804	32278	
4355	0	32760	32374	
4356	0	32800	32687	
4357	0	32836	32732	
4358	0	32824	32215	
4359	0	32775	32632	
4360	0	32724	32332	
4361	0	32844	32620	
4362	0	32810	32334	
4363	0	32796	32759	
4364	0	32772	32247	
4365	0	32812	32705	
4366	0	32786	32231	
4367	0	32804	32390	
4368	0	32784	32318	
4369	0	32815	32163	
4370	0	32766	32557	
4371	0	32798	32350	
4372	0	32805	32369	
4373	0	32798	32764	
4374	0	32868	32543	
4375	0	32782	32668	
4376	0	32766	32474	
4377	0	32760	32094	
4378	0	32772	32596	
4379	0	32741	32092	
4380	0	32736	32511	
4381	0	32820	32748	
4382	0	32878	32313	
4383	0	32736	32511	
4384	0	32776	32503	
4385	0	32775	32207	
4386	0	32726	32599	
4387	0	32752	32223	
4388	0	32736	32703	
4389	0	32700	32234	
4390	0	32780	32631	
4391	0	32880	31943	
4392	0	32756	31708	
4393	0	32814	32101	
4394	0	32720	32903	
4395	0	32548	32870	
4396	0	32597	32991	
4397	0	32564	32074	
4398	0	32302	32358	
4399	0	32156	32430	
4400	0	32212	32087	
4401	0	32132	31723	
4402	0	32032	32815	
4403	0	31744	32554	
4404	0	31870	32807	
4405	0	32016	32632	
4406	0	31903	32577	
4407	0	31968	32711	
4408	0	31856	31914	
4409	0	32052	31767	
4410	0	32250	32327	
4411	0	32842	31806	
4412	0	33200	32466	
4413	0	33488	32958	
4414	0	33952	33303	
4415	0	33856	32455	
4416	0	33978	32287	
4417	0	34118	32263	
4418	0	33828	32102	
4419	0	34161	32482	
4420	0	33938	32096	
4421	0	34088	32215	
4422	0	34561	32542	
4423	0	34876	32604	
4424	0	35004	32342	
4425	0	34850	32352	
4426	0	34792	32519	
4427	0	35088	32503	
4428	0	35522	32535	
4429	0	35584	32519	
4430	0	35225	32647	
4431	0	35018	32812	
4432	0	34556	32719	
4433	0	33250	32300	
4434	0	32554	32179	
4435	0	32174	32039	
4436	0	31722	32414	
4437	0	31268	32636	
4438	0	31074	32655	
4439	0	31226	32519	
4440	0	31382	32325	
4441	0	31222	32235	
4442	0	31194	32263	
4443	0	31114	32284	
4444	0	31094	32466	
4445	0	31060	32382	
4446	0	31080	32471	
4447	0	31172	32076	
4448	0	31200	32145	
4449	0	31188	32193	
4450	0	31190	32287	
4451	0	31216	32092	
4452	0	31104	31978	
4453	0	31084	31966	
4454	0	31254	32122	
4455	0	31336	32383	
4456	0	31540	32809	
4457	0	31733	32870	
4458	0	32052	32867	
4459	0	32180	32519	
4460	0	32582	32471	
4461	0	32842	32535	
4462	0	33090	32547	
4463	0	33192	32421	
4464	0	33372	32684	
4465	0	33444	32582	
4466	0	33508	32472	
4467	0	33664	32801	
4468	0	33524	32414	
4469	0	33560	32150	
4470	0	33457	32468	
4471	0	33376	32199	
4472	0	33429	31847	
4473	0	33392	32375	
4474	0	33276	32447	
4475	0	33280	32214	
4476	0	33220	32238	
4477	0	33136	32339	
4478	0	33148	31796	
4479	0	33116	32246	
4480	0	33116	32820	
4481	0	33124	32796	
4482	0	33031	32511	
4483	0	33036	32551	
4484	0	32972	32405	
4485	0	32856	32439	
4486	0	32760	32302	
4487	0	32864	32659	
4488	0	32981	32426	
4489	0	32900	32839	
4490	0	32828	32903	
4491	0	32846	32414	
4492	0	32880	32135	
4493	0	32916	32762	
4494	0	32804	32695	
4495	0	32789	32452	
4496	0	32757	32222	
4497	0	32876	32263	
4498	0	32852	32615	
4499	0	32844	31842	
4500	0	32804	31895	
4501	0	32798	32476	
4502	0	32786	32572	
4503	0	32762	32164	
4504	0	32736	32059	
4505	0	32775	32412	
4506	0	32712	32963	
4507	0	32800	32595	
4508	0	32796	32026	
4509	0	32700	31926	
4510	0	32782	32580	
4511	0	32772	31853	
4512	0	32864	32335	
4513	0	32864	32403	
4514	0	32876	32519	
4515	0	32796	32805	
4516	0	32764	32305	
4517	0	32724	32325	
4518	0	32789	32652	
4519	0	32804	32375	
4520	0	32820	32308	
4521	0	32856	32220	
4522	0	32940	32102	
4523	0	32756	32647	
4524	0	32812	32791	
4525	0	32775	32391	
4526	0	32820	32683	
4527	0	32724	32382	
4528	0	32804	32208	
4529	0	32806	32413	
4530	0	32815	32263	
4531	0	32844	32207	
4532	0	32735	32067	
4533	0	32744	31936	
4534	0	32855	32119	
4535	0	32900	32711	
4536	0	32804	32967	
4537	0	32812	32870	
4538	0	32784	32572	
4539	0	32754	32134	
4540	0	32764	32206	
4541	0	32818	32655	
4542	0	32732	32631	
4543	0	32732	32190	
4544	0	32796	32252	
4545	0	32756	32687	
4546	0	32756	32334	
4547	0	32768	32253	
4548	0	32886	32327	
4549	0	32804	32751	
4550	0	32820	32924	
4551	0	32918	32724	
4552	0	32900	32236	
4553	0	32900	31932	
4554	0	32784	32566	
4555	0	32740	31986	
4556	0	32650	32351	
4557	0	32732	32838	
4558	0	32840	32956	
4559	0	32785	32583	
4560	0	32765	32373	
4561	0	32734	31991	
4562	0	32747	31545	
4563	0	32762	31889	
4564	0	32788	32662	
4565	0	32826	32575	
4566	0	32806	32495	
4567	0	32806	32565	
4568	0	32812	32535	
4569	0	32867	32301	
4570	0	32792	32151	
4571	0	32660	32154	
4572	0	32792	32454	
4573	0	32740	32375	
4574	0	32783	32058	
4575	0	32928	32362	
4576	0	32872	32711	
4577	0	32832	32775	
4578	0	32844	31959	
4579	0	32854	32026	
4580	0	32772	32973	
4581	0	32736	33286	
4582	0	32778	32572	
4583	0	32808	32038	
4584	0	32840	32199	
4585	0	32761	32770	
4586	0	32800	32694	
4587	0	32756	32377	
4588	0	32823	32536	
4589	0	32764	32375	
4590	0	32804	32127	
4591	0	32834	33059	
4592	0	32820	32679	
4593	0	32740	32062	
4594	0	32743	32159	
4595	0	32784	32391	
4596	0	32788	32087	
4597	0	32744	31988	
4598	0	32744	32245	
4599	0	32783	31929	
4600	0	32784	32820	
4601	0	32841	33150	
4602	0	32840	32503	
4603	0	32844	32335	
4604	0	32938	32690	
4605	0	32852	32338	
4606	0	32920	32263	
4607	0	32796	32489	
4608	0	32782	31942	
4609	0	32744	32371	
4610	0	32844	32428	
4611	0	32864	32622	
4612	0	32834	32436	
4613	0	32844	32583	
4614	0	32856	32698	
4615	0	32821	32564	
4616	0	32860	32378	
4617	0	32814	32046	
4618	0	32816	32130	
4619	0	32748	32415	
4620	0	32788	32557	
4621	0	32804	32215	
4622	0	32744	32005	
4623	0	32816	32646	
4624	0	32738	32964	
4625	0	32820	32188	
4626	0	32818	32391	
4627	0	32788	32673	
4628	0	32798	32595	
4629	0	32764	32490	
4630	0	32868	32846	
4631	0	32788	32423	
4632	0	32932	32023	
4633	0	32938	32007	
4634	0	33024	32319	
4635	0	33018	32532	
4636	0	32828	32295	
4637	0	32804	31985	
4638	0	32748	32615	
4639	0	32704	32646	
4640	0	32804	32306	
4641	0	32694	32127	
4642	0	32760	32116	
4643	0	32718	32703	
4644	0	32732	32791	
4645	0	32860	32548	
4646	0	32776	32390	
4647	0	32780	32742	
4648	0	32800	32721	
4649	0	32852	32231	
4650	0	32916	32327	
4651	0	32756	32663	
4652	0	32705	32692	
4653	0	32830	32558	
4654	0	32868	32278	
4655	0	32816	32223	
4656	0	32832	32442	
4657	0	32904	32452	
4658	0	32816	32396	
4659	0	32824	32113	
4660	0	32796	32230	
4661	0	32844	32235	
4662	0	32784	32461	
4663	0	32830	32660	
4664	0	32832	32340	
4665	0	32932	32060	
4666	0	32744	31999	
4667	0	32774	31988	
4668	0	32816	32731	
4669	0	32818	33150	
4670	0	32906	32607	
4671	0	32932	32727	
4672	0	32852	32580	
4673	0	32760	32658	
4674	0	32652	32575	
4675	0	32780	32191	
4676	0	32769	32418	
4677	0	32760	32510	
4678	0	32700	32181	
4679	0	32800	32359	
4680	0	32788	32321	
4681	0	32840	32325	
4682	0	32832	32532	
4683	0	32788	32699	
4684	0	32848	32580	
4685	0	32820	32582	
4686	0	32813	32455	
4687	0	32808	32206	
4688	0	32868	32546	
4689	0	32828	32622	
4690	0	32784	32237	
4691	0	32804	31742	
4692	0	32814	32466	
4693	0	32764	32853	
4694	0	32732	32452	
4695	0	32702	32231	
4696	0	32732	32500	
4697	0	32684	32606	
4698	0	32740	32140	
4699	0	32716	32415	
4700	0	32726	32774	
4701	0	32722	32192	
4702	0	32682	32207	
4703	0	32712	32403	
4704	0	32764	32463	
4705	0	32778	32340	
4706	0	32794	32686	
4707	0	32808	32489	
4708	0	32764	32166	
4709	0	32856	32467	
4710	0	32732	32717	
4711	0	32712	32675	
4712	0	32736	32703	
4713	0	32806	32480	
4714	0	32816	32683	
4715	0	32732	32775	
4716	0	32790	32499	
4717	0	32782	32468	
4718	0	32728	32159	
4719	0	32724	32110	
4720	0	32828	32428	
4721	0	32860	32357	
4722	0	32804	31914	
4723	0	32804	32558	
4724	0	32792	32311	
4725	0	32794	32103	
4726	0	32794	32311	
4727	0	32848	32755	
4728	0	32794	32735	
4729	0	32762	32533	
4730	0	32752	32447	
4731	0	32724	32263	
4732	0	32692	32438	
4733	0	32674	32602	
4734	0	32556	32599	
4735	0	32486	32252	
4736	0	32582	32116	
4737	0	32732	32284	
4738	0	32688	32808	
4739	0	32700	32775	
4740	0	32756	32600	
4741	0	32836	32092	
4742	0	32942	32007	
4743	0	32872	32252	
4744	0	32848	32159	
4745	0	32872	32407	
4746	0	32852	32679	
4747	0	32837	32747	
4748	0	32821	32482	
4749	0	32838	32263	
4750	0	32886	32151	
4751	0	32848	32439	
4752	0	32794	32857	
4753	0	32824	33103	
4754	0	32824	32511	
4755	0	32694	31966	
4756	0	32636	32123	
4757	0	32692	32391	
4758	0	32872	32143	
4759	0	32832	32164	
4760	0	32974	32519	
4761	0	32900	32751	
4762	0	32724	32089	
4763	0	32692	31990	
4764	0	32654	32671	
4765	0	32770	33030	
4766	0	32904	32247	
4767	0	33032	32291	
4768	0	33036	32662	
4769	0	33120	32445	
4770	0	33212	31998	
4771	0	33438	32334	
4772	0	33288	32342	
4773	0	32996	32122	
4774	0	32994	32175	
4775	0	32932	32822	
4776	0	32812	32681	
4777	0	32840	32366	
4778	0	32680	32391	
4779	0	32652	32415	
4780	0	32741	32488	
4781	0	32768	32359	
4782	0	32676	32164	
4783	0	32820	32233	
4784	0	32816	32405	
4785	0	32864	32492	
4786	0	32700	32441	
4787	0	32748	32533	
4788	0	32716	32677	
4789	0	32836	32468	
4790	0	32858	32058	
4791	0	32848	32716	
4792	0	32864	32892	
4793	0	32936	32839	
4794	0	32814	32446	
4795	0	32848	31971	
4796	0	32880	32483	
4797	0	32780	32695	
4798	0	32780	32239	
4799	0	32756	31854	
4800	0	32788	32321	
4801	0	32806	32836	
4802	0	32836	32636	
4803	0	32988	32169	
4804	0	32870	32299	
4805	0	32916	32716	
4806	0	32848	32798	
4807	0	32656	32343	
4808	0	32766	32236	
4809	0	32734	32007	
4810	0	32716	32317	
4811	0	32784	32293	
4812	0	32744	32041	
4813	0	32684	32391	
4814	0	32852	32538	
4815	0	32868	32651	
4816	0	32800	32427	
4817	0	32800	32447	
4818	0	32794	32391	
4819	0	32690	32309	
4820	0	32688	32398	
4821	0	32830	32279	
4822	0	32758	32604	
4823	0	32716	32727	
4824	0	32740	32286	
4825	0	32657	32389	
4826	0	32768	32799	
4827	0	32836	32548	
4828	0	32736	32223	
4829	0	32752	32383	
4830	0	32721	32446	
4831	0	32760	32055	
4832	0	32814	32519	
4833	0	32748	32111	
4834	0	32792	31902	
4835	0	32764	32590	
4836	0	32785	32574	
4837	0	32816	32239	
4838	0	32748	32326	
4839	0	32689	32662	
4840	0	32716	32690	
4841	0	32752	32707	
4842	0	32744	32316	
4843	0	32788	32519	
4844	0	32756	32364	
4845	0	32806	31968	
4846	0	32889	32053	
4847	0	32836	32483	
4848	0	32976	32439	
4849	0	32900	32239	
4850	0	32736	32391	
4851	0	32772	32868	
4852	0	32800	32713	
4853	0	32795	32286	
4854	0	32816	32604	
4855	0	32818	32532	
4856	0	32832	32367	
4857	0	32716	32535	
4858	0	32836	31964	
4859	0	32877	32263	
4860	0	33094	32804	
4861	0	33056	32996	
4862	0	33052	32670	
4863	0	32904	32135	
4864	0	32810	32159	
4865	0	32652	32311	
4866	0	32626	32678	
4867	0	32482	32769	
4868	0	32388	32455	
4869	0	32292	31987	
4870	0	32120	32164	
4871	0	32058	32567	
4872	0	32215	32741	
4873	0	32042	32487	
4874	0	32068	31987	
4875	0	31892	31933	
4876	0	31636	32602	
4877	0	31448	32871	
4878	0	31290	32794	
4879	0	31342	32215	
4880	0	31486	32196	
4881	0	31608	32615	
4882	0	31652	32485	
4883	0	31676	32502	
4884	0	31688	32355	
4885	0	31766	31670	
4886	0	31885	31578	
4887	0	31870	31995	
4888	0	32102	32412	
4889	0	32708	32606	
4890	0	33744	32818	
4891	0	34232	32775	
4892	0	34660	33010	
4893	0	34974	32519	
4894	0	34872	32367	
4895	0	35100	32301	
4896	0	35292	32438	
4897	0	35304	32556	
4898	0	35004	32540	
4899	0	35040	32425	
4900	0	35040	32260	
4901	0	35292	31943	
4902	0	35480	32580	
4903	0	35748	32815	
4904	0	36036	32602	
4905	0	36078	32518	
4906	0	36010	32596	
4907	0	35524	32582	
4908	0	35124	32447	
4909	0	34782	32111	
4910	0	33812	32412	
4911	0	32704	32883	
4912	0	31916	32647	
4913	0	31236	32399	
4914	0	30708	32812	
4915	0	30532	32465	
4916	0	30512	32094	
4917	0	30701	32338	
4918	0	30784	32519	
4919	0	30990	32539	
4920	0	31076	32735	
4921	0	31044	32874	
4922	0	31184	32726	
4923	0	31612	32675	
4924	0	31856	32189	
4925	0	31844	31923	
4926	0	31712	32070	
4927	0	31569	32424	
4928	0	31596	32574	
4929	0	31526	32247	
4930	0	31556	31859	
4931	0	31668	32090	
4932	0	31780	32574	
4933	0	31732	32591	
4934	0	31880	32135	
4935	0	32090	31502	
4936	0	32316	32231	
4937	0	32560	32533	
4938	0	32689	32639	
4939	0	32988	32519	
4940	0	33048	32410	
4941	0	33116	32299	
4942	0	33282	32642	
4943	0	33352	32615	
4944	0	33352	32391	
4945	0	33326	31991	
4946	0	33230	32399	
4947	0	33208	32743	
4948	0	33264	32263	
4949	0	33162	31991	
4950	0	33140	32734	
4951	0	33064	32897	
4952	0	33060	32974	
4953	0	32964	32598	
4954	0	32880	32095	
4955	0	32866	32205	
4956	0	32808	32741	
4957	0	32896	33058	
4958	0	32984	32530	
4959	0	32892	31966	
4960	0	32810	31719	
4961	0	32860	32250	
4962	0	32888	32535	
4963	0	32785	32615	
4964	0	32764	32565	
4965	0	32734	31719	
4966	0	32820	31924	
4967	0	32812	33124	
4968	0	32814	33183	
4969	0	32740	32615	
4970	0	32774	32386	
4971	0	32750	32116	
4972	0	32896	32071	
4973	0	32894	32247	
4974	0	32852	32327	
4975	0	32820	32519	
4976	0	32848	32463	
4977	0	32880	32503	
4978	0	32850	32671	
4979	0	32816	32972	
4980	0	32812	32519	
4981	0	32750	32036	
4982	0	32828	32119	
4983	0	32834	32476	
4984	0	32774	32506	
4985	0	32874	32107	
4986	0	32834	32591	
4987	0	32852	32706	
4988	0	32918	32361	
4989	0	32757	32167	
4990	0	32668	32210	
4991	0	32810	32502	
4992	0	32856	32476	
4993	0	32758	32225	
4994	0	32729	32428	
4995	0	32782	32637	
4996	0	32804	32899	
4997	0	32776	32757	
4998	0	32774	32358	
4999	0	32856	32294	
5000	0	32732	32187	
5001	0	32684	32103	
5002	0	32879	31887	
5003	0	32814	32183	
5004	0	32832	32452	
5005	0	32896	32245	
5006	0	32860	32290	
5007	0	32748	32334	
5008	0	32778	32339	
5009	0	32758	32233	
5010	0	32786	32324	
5011	0	32746	32654	
5012	0	32816	32980	
5013	0	32820	32839	
5014	0	32847	32412	
5015	0	32890	32071	
5016	0	32820	32453	
5017	0	32782	32825	
5018	0	32846	32686	
5019	0	32856	32551	
5020	0	32830	32644	
5021	0	32824	32135	
5022	0	32812	32107	
5023	0	32812	32627	
5024	0	32848	32794	
5025	0	32860	32159	
5026	0	32806	31717	
5027	0	32820	32487	
5028	0	32806	32796	
5029	0	32764	32654	
5030	0	32760	32619	
5031	0	32788	32396	
5032	0	32850	32263	
5033	0	32810	32332	
5034	0	32723	32283	
5035	0	32740	32146	
5036	0	32742	32222	
5037	0	32778	32215	
5038	0	32768	32622	
5039	0	32808	32398	
5040	0	32668	32346	
5041	0	32810	32706	
5042	0	32782	32675	
5043	0	32804	32403	
5044	0	32816	32479	
5045	0	32936	33115	
5046	0	32908	32794	
5047	0	32960	32478	
5048	0	32936	32407	
5049	0	32924	32302	
5050	0	32750	32071	
5051	0	32784	32241	
5052	0	32900	32341	
5053	0	32860	32364	
5054	0	32772	32623	
5055	0	32732	31750	
5056	0	32686	32263	
5057	0	32948	32263	
5058	0	32924	32135	
5059	0	32834	32731	
5060	0	32864	32342	
5061	0	32856	32327	
5062	0	32876	32503	
5063	0	32784	32602	
5064	0	32766	32300	
5065	0	32734	32370	
5066	0	32834	32471	
5067	0	32768	32414	
5068	0	32794	32223	
5069	0	32804	31815	
5070	0	32848	32461	
5071	0	32796	33301	
5072	0	32760	32632	
5073	0	32710	32319	
5074	0	32710	32676	
5075	0	32760	32631	
5076	0	32816	32215	
5077	0	32796	32199	
5078	0	32802	32519	
5079	0	32887	32482	
5080	0	32784	32405	
5081	0	32774	32207	
5082	0	32784	31927	
5083	0	32792	31999	
5084	0	32838	32332	
5085	0	32740	32542	
5086	0	32774	32621	
5087	0	32766	32824	
5088	0	32892	32759	
5089	0	32818	32533	
5090	0	32804	32303	
5091	0	32748	32215	
5092	0	32698	32222	
5093	0	32798	32302	
5094	0	32764	32382	
5095	0	32848	32413	
5096	0	32760	32519	
5097	0	32708	32404	
5098	0	32644	32421	
5099	0	32712	32252	
5100	0	32700	32351	
5101	0	32758	32215	
5102	0	32718	32358	
5103	0	32680	32754	
5104	0	32668	32788	
5105	0	32738	32180	
5106	0	32752	32507	
5107	0	32750	33086	
5108	0	32689	32860	
5109	0	32724	32391	
5110	0	32736	31948	
5111	0	32787	31739	
5112	0	32745	32191	
5113	0	32676	32542	
5114	0	32742	32727	
5115	0	32764	32655	
5116	0	32816	32342	
5117	0	32812	32383	
5118	0	32752	32111	
5119	0	32830	32209	
5120	0	32832	32333	
5121	0	32728	32084	
5122	0	32804	32326	
5123	0	32796	32611	
5124	0	32804	32204	
5125	0	32844	32356	
5126	0	32884	32697	
5127	0	32838	32415	
5128	0	32834	32559	
5129	0	32752	32775	
5130	0	32900	32735	
5131	0	32812	32751	
5132	0	32764	32258	
5133	0	32807	31869	
5134	0	32816	32417	
5135	0	32849	32445	
5136	0	32837	32346	
5137	0	32852	32204	
5138	0	32865	32263	
5139	0	32836	32068	
5140	0	32810	32752	
5141	0	32834	33094	
5142	0	32912	32926	
5143	0	32922	32390	
5144	0	32732	32044	
5145	0	32860	31655	
5146	0	32940	32519	
5147	0	32820	32887	
5148	0	32784	32637	
5149	0	32812	32549	
5150	0	32876	32738	
5151	0	32848	32567	
5152	0	32768	32530	
5153	0	32761	32039	
5154	0	32812	31959	
5155	0	32841	32263	
5156	0	32836	32358	
5157	0	32916	32426	
5158	0	32880	32362	
5159	0	32780	32334	
5160	0	32780	32238	
5161	0	32804	32250	
5162	0	32754	32655	
5163	0	32753	32306	
5164	0	32824	32084	
5165	0	32792	32519	
5166	0	32722	32451	
5167	0	32754	32659	
5168	0	32945	32603	
5169	0	32888	32487	
5170	0	32808	32196	
5171	0	32806	32188	
5172	0	32812	32477	
5173	0	32700	32735	
5174	0	32800	32579	
5175	0	32788	32131	
5176	0	32808	32096	
5177	0	32814	32511	
5178	0	32752	32687	
5179	0	32849	32234	
5180	0	32832	32457	
5181	0	32760	32929	
5182	0	32865	32791	
5183	0	32834	32389	
5184	0	32794	32119	
5185	0	32735	32431	
5186	0	32856	32567	
5187	0	32775	31974	
5188	0	32822	31970	
5189	0	32754	32439	
5190	0	32692	32279	
5191	0	32704	32295	
5192	0	32880	32460	
5193	0	32918	32199	
5194	0	32816	31623	
5195	0	32820	32199	
5196	0	32756	33091	
5197	0	32878	32844	
5198	0	32800	32478	
5199	0	32776	32388	
5200	0	32720	32554	
5201	0	32769	32614	
5202	0	32788	32063	
5203	0	32752	31796	
5204	0	32760	32496	
5205	0	32746	32727	
5206	0	32834	32325	
5207	0	32872	31908	
5208	0	32790	31516	
5209	0	32816	32508	
5210	0	32862	33099	
5211	0	32868	32763	
5212	0	32774	32591	
5213	0	32832	32455	
5214	0	32840	32447	
5215	0	32848	32630	
5216	0	32849	32439	
5217	0	32864	32049	
5218	0	32764	32343	
5219	0	32644	32719	
5220	0	32592	32511	
5221	0	32440	32514	
5222	0	32450	32492	
5223	0	32606	32494	
5224	0	32640	32400	
5225	0	32676	32554	
5226	0	32652	32191	
5227	0	32696	32300	
5228	0	32760	32307	
5229	0	32704	32539	
5230	0	32908	32622	
5231	0	32822	32612	
5232	0	32864	32484	
5233	0	32833	32062	
5234	0	32816	32135	
5235	0	32880	32386	
5236	0	32872	32417	
5237	0	32936	32893	
5238	0	32848	32835	
5239	0	32812	32252	
5240	0	32816	32380	
5241	0	32832	32255	
5242	0	32730	32322	
5243	0	32616	32436	
5244	0	32624	32311	
5245	0	32868	32052	
5246	0	32912	32414	
5247	0	33112	32391	
5248	0	32980	32314	
5249	0	32872	32350	
5250	0	32688	32404	
5251	0	32689	32631	
5252	0	32710	32602	
5253	0	32774	32400	
5254	0	32926	32630	
5255	0	33066	32255	
5256	0	33124	31842	
5257	0	33198	32775	
5258	0	33224	32740	
5259	0	33068	32757	
5260	0	32984	33044	
5261	0	32994	32767	
5262	0	32886	32495	
5263	0	32800	32327	
5264	0	32642	31908	
5265	0	32790	32046	
5266	0	32664	32247	
5267	0	32696	32391	
5268	0	32658	32540	
5269	0	32766	32462	
5270	0	32864	32540	
5271	0	32908	32513	
5272	0	32876	32495	
5273	0	32774	32207	
5274	0	32880	32041	
5275	0	32858	32486	
5276	0	32854	32775	
5277	0	32969	32657	
5278	0	32924	32484	
5279	0	32876	32689	
5280	0	32810	32379	
5281	0	32824	31899	
5282	0	32814	32167	
5283	0	32726	32279	
5284	0	32732	32519	
5285	0	32764	32351	
5286	0	32738	32135	
5287	0	32832	32794	
5288	0	32806	32796	
5289	0	32788	32465	
5290	0	32980	32383	
5291	0	32949	31970	
5292	0	32874	32034	
5293	0	32742	32356	
5294	0	32844	32487	
5295	0	32892	32995	
5296	0	32828	33125	
5297	0	32812	32769	
5298	0	32780	32551	
5299	0	32809	32237	
5300	0	32748	31876	
5301	0	32844	31914	
5302	0	32764	32765	
5303	0	32717	32916	
5304	0	32721	32469	
5305	0	32744	32383	
5306	0	32794	32406	
5307	0	32676	32094	
5308	0	32564	31460	
5309	0	32642	31922	
5310	0	32684	32391	
5311	0	32732	32731	
5312	0	32784	32559	
5313	0	32860	32519	
5314	0	32776	32647	
5315	0	32748	32735	
5316	0	32828	32414	
5317	0	32938	32423	
5318	0	32748	32436	
5319	0	32736	32198	
5320	0	32736	32108	
5321	0	32774	32578	
5322	0	32710	32151	
5323	0	32708	32229	
5324	0	32808	32647	
5325	0	32832	32647	
5326	0	32680	32320	
5327	0	32838	32175	
5328	0	32920	32212	
5329	0	32889	32575	
5330	0	32727	32540	
5331	0	32794	32399	
5332	0	32792	32499	
5333	0	32824	32495	
5334	0	32764	32207	
5335	0	32848	32452	
5336	0	32758	32361	
5337	0	32839	31889	
5338	0	32852	32021	
5339	0	32772	32604	
5340	0	32844	32740	
5341	0	32759	32685	
5342	0	32721	32669	
5343	0	32833	32548	
5344	0	32794	33055	
5345	0	32740	32804	
5346	0	32718	32391	
5347	0	32812	32196	
5348	0	32836	32354	
5349	0	32832	32302	
5350	0	32868	32319	
5351	0	32794	32623	
5352	0	32768	32487	
5353	0	32816	32426	
5354	0	32836	32358	
5355	0	32790	32204	
5356	0	32742	32519	
5357	0	32700	32718	
5358	0	32616	32513	
5359	0	32717	32330	
5360	0	32484	32444	
5361	0	32354	32871	
5362	0	32288	32710	
5363	0	32116	32124	
5364	0	32112	31751	
5365	0	32024	32127	
5366	0	31900	32069	
5367	0	31692	32543	
5368	0	31668	32847	
5369	0	31673	33011	
5370	0	31760	32647	
5371	0	31816	32135	
5372	0	31714	32164	
5373	0	31740	32305	
5374	0	31996	32519	
5375	0	32480	32363	
5376	0	33170	32383	
5377	0	33480	32378	
5378	0	33748	32445	
5379	0	33980	32511	
5380	0	34376	32674	
5381	0	34714	32759	
5382	0	34836	32789	
5383	0	34730	32614	
5384	0	34626	32384	
5385	0	34594	32116	
5386	0	34920	32007	
5387	0	35406	32447	
5388	0	35618	32531	
5389	0	35334	32434	
5390	0	34870	32627	
5391	0	35072	32890	
5392	0	35708	32950	
5393	0	35905	32519	
5394	0	35864	32674	
5395	0	35534	33002	
5396	0	34632	32695	
5397	0	33266	32390	
5398	0	32438	31810	
5399	0	31716	31410	
5400	0	31088	31751	
5401	0	30672	32404	
5402	0	30496	32703	
5403	0	30654	32775	
5404	0	31117	32807	
5405	0	31100	32557	
5406	0	30914	32444	
5407	0	30808	32423	
5408	0	30856	32478	
5409	0	31166	32836	
5410	0	31296	32738	
5411	0	31140	32572	
5412	0	31060	32279	
5413	0	30856	32194	
5414	0	30808	32086	
5415	0	30818	32294	
5416	0	30688	32519	
5417	0	30748	32812	
5418	0	30964	32675	
5419	0	31085	32461	
5420	0	31208	32287	
5421	0	31684	32028	
5422	0	31906	32263	
5423	0	32392	32414	
5424	0	32532	32455	
5425	0	32768	32479	
5426	0	32974	32332	
5427	0	33354	32416	
5428	0	33582	32276	
5429	0	33768	32407	
5430	0	33764	32212	
5431	0	33700	32111	
5432	0	33694	32084	
5433	0	33636	31660	
5434	0	33594	31584	
5435	0	33586	32975	
5436	0	33578	33140	
5437	0	33408	32643	
5438	0	33404	32814	
5439	0	33324	32719	
5440	0	33198	32311	
5441	0	33095	32290	
5442	0	33172	32343	
5443	0	33092	32302	
5444	0	32944	32153	
5445	0	32928	32039	
5446	0	33044	32415	
5447	0	33024	32503	
5448	0	32962	32295	
5449	0	33032	32604	
5450	0	32724	32091	
5451	0	32916	32371	
5452	0	32972	32580	
5453	0	32852	32607	
5454	0	32798	32539	
5455	0	32741	32628	
5456	0	32804	32679	
5457	0	32676	32431	
5458	0	32756	32089	
5459	0	32836	32151	
5460	0	32758	32647	
5461	0	32860	33053	
5462	0	33028	32721	
5463	0	32912	32390	
5464	0	32764	32007	
5465	0	32900	31751	
5466	0	32998	32755	
5467	0	32828	32599	
5468	0	32756	31922	
5469	0	32736	32428	
5470	0	32804	32413	
5471	0	32868	32146	
5472	0	32852	32831	
5473	0	32812	32508	
5474	0	32868	32378	
5475	0	32900	32535	
5476	0	32730	32631	
5477	0	32790	32935	
5478	0	32700	33019	
5479	0	32774	32835	
5480	0	32821	32580	
5481	0	32780	32620	
5482	0	32826	32356	
5483	0	32756	31850	
5484	0	32728	31592	
5485	0	32686	31521	
5486	0	32814	31718	
5487	0	32860	32428	
5488	0	32828	32634	
5489	0	32808	32653	
5490	0	32928	32519	
5491	0	32774	32116	
5492	0	32900	32751	
5493	0	32765	32806	
5494	0	32708	32263	
5495	0	32737	32222	
5496	0	32940	32551	
5497	0	32852	32439	
5498	0	32844	32263	
5499	0	32796	32718	
5500	0	32682	32748	
5501	0	32740	32372	
5502	0	32826	32150	
5503	0	32848	32162	
5504	0	32796	32359	
5505	0	32828	32368	
5506	0	32792	32421	
5507	0	32718	32558	
5508	0	32804	33027	
5509	0	32824	32660	
5510	0	32818	31954	
5511	0	32816	32388	
5512	0	32774	32289	
5513	0	32805	32148	
5514	0	32748	31634	
5515	0	32772	31963	
5516	0	32924	32614	
5517	0	32766	32532	
5518	0	32724	32583	
5519	0	32744	32484	
5520	0	32758	32298	
5521	0	32750	31927	
5522	0	32740	32391	
5523	0	32752	32573	
5524	0	32696	32687	
5525	0	32944	32751	
5526	0	32868	32735	
5527	0	32801	32499	
5528	0	32792	32303	
5529	0	32820	32383	
5530	0	32766	32455	
5531	0	32796	32111	
5532	0	32768	31956	
5533	0	32692	32756	
5534	0	32796	32223	
5535	0	32840	32016	
5536	0	32852	31837	
5537	0	32824	31996	
5538	0	32828	31794	
5539	0	32809	32202	
5540	0	32832	32801	
5541	0	32820	33190	
5542	0	32802	32815	
5543	0	32782	32618	
5544	0	32788	32359	
5545	0	32788	32951	
5546	0	32744	32750	
5547	0	32788	32167	
5548	0	32754	32198	
5549	0	32655	32206	
5550	0	32764	32367	
5551	0	32916	32351	
5552	0	32896	32220	
5553	0	32838	32263	
5554	0	32800	32327	
5555	0	32910	31999	
5556	0	32792	32124	
5557	0	32708	32260	
5558	0	32732	31950	
5559	0	32825	32375	
5560	0	32872	32496	
5561	0	32846	32548	
5562	0	32768	32614	
5563	0	32762	32239	
5564	0	32746	31963	
5565	0	32760	32639	
5566	0	32864	33023	
5567	0	32976	32401	
5568	0	32908	32028	
5569	0	32854	32351	
5570	0	32928	32356	
5571	0	32830	32806	
5572	0	32788	32840	
5573	0	32816	32606	
5574	0	32636	32193	
5575	0	32678	32505	
5576	0	32804	33009	
5577	0	32792	32663	
5578	0	32775	31911	
5579	0	32734	31867	
5580	0	32804	32158	
5581	0	32746	31468	
5582	0	32848	32020	
5583	0	32932	32530	
5584	0	32774	32807	
5585	0	32914	32292	
5586	0	32880	32454	
5587	0	32966	32751	
5588	0	32936	32222	
5589	0	32902	32212	
5590	0	32896	32024	
5591	0	32788	32124	
5592	0	32784	32945	
5593	0	32784	33828	
5594	0	32694	32832	
5595	0	32812	32378	
5596	0	32718	32623	
5597	0	32708	32338	
5598	0	32799	32174	
5599	0	32788	32234	
5600	0	32836	32287	
5601	0	32846	32610	
5602	0	32822	32487	
5603	0	32784	32071	
5604	0	32874	32127	
5605	0	32720	32290	
5606	0	32758	32414	
5607	0	32756	32347	
5608	0	32808	32182	
5609	0	32862	32204	
5610	0	32786	32322	
5611	0	32800	32346	
5612	0	32798	32468	
5613	0	32876	32183	
5614	0	32801	32111	
5615	0	32830	32747	
5616	0	32820	32828	
5617	0	32800	32324	
5618	0	32844	32351	
5619	0	32976	32511	
5620	0	32956	32647	
5621	0	32756	32509	
5622	0	32758	32527	
5623	0	32924	32516	
5624	0	32888	32591	
5625	0	32934	32529	
5626	0	32772	32540	
5627	0	32912	32167	
5628	0	32906	31724	
5629	0	32813	31988	
5630	0	32832	32934	
5631	0	32812	32279	
5632	0	32866	32455	
5633	0	32706	31986	
5634	0	32852	32542	
5635	0	32784	33007	
5636	0	32816	32544	
5637	0	32764	32327	
5638	0	32746	32134	
5639	0	32828	32263	
5640	0	32693	32231	
5641	0	32775	32119	
5642	0	32812	32591	
5643	0	32788	32663	
5644	0	32758	33087	
5645	0	32737	32775	
5646	0	32782	32105	
5647	0	32752	32260	
5648	0	32676	32542	
5649	0	32736	32298	
5650	0	32736	32254	
5651	0	32704	32611	
5652	0	32728	32468	
5653	0	32836	32382	
5654	0	32836	32886	
5655	0	32881	32515	
5656	0	32756	32260	
5657	0	32808	32322	
5658	0	32832	32262	
5659	0	32752	32455	
5660	0	32788	32603	
5661	0	32802	32770	
5662	0	32710	32505	
5663	0	32742	32574	
5664	0	32720	32263	
5665	0	32716	31908	
5666	0	32696	31926	
5667	0	32740	32135	
5668	0	32756	32180	
5669	0	32766	32106	
5670	0	32728	32319	
5671	0	32800	32684	
5672	0	32798	32724	
5673	0	32792	32658	
5674	0	32804	32732	
5675	0	32734	32311	
5676	0	32862	32347	
5677	0	32772	32353	
5678	0	32720	31983	
5679	0	32756	32180	
5680	0	32908	32311	
5681	0	32888	32716	
5682	0	32768	32599	
5683	0	32814	32457	
5684	0	32712	32247	
5685	0	32752	32367	
5686	0	32688	32916	
5687	0	32742	32924	
5688	0	32708	32233	
5689	0	32710	32007	
5690	0	32764	32402	
5691	0	32756	32892	
5692	0	32748	32895	
5693	0	32776	32662	
5694	0	32756	32492	
5695	0	32813	32196	
5696	0	32770	31916	
5697	0	32785	32120	
5698	0	32738	32276	
5699	0	32736	32263	
5700	0	32622	32159	
5701	0	32456	32090	
5702	0	32524	32197	
5703	0	32529	32356	
5704	0	32644	32212	
5705	0	32636	32255	
5706	0	32624	32682	
5707	0	32676	32775	
5708	0	32942	32670	
5709	0	32806	32303	
5710	0	32814	31805	
5711	0	32866	32117	
5712	0	32844	32761	
5713	0	32804	32694	
5714	0	32788	32579	
5715	0	32850	32618	
5716	0	32890	32647	
5717	0	32912	32598	
5718	0	32928	32583	
5719	0	33012	32256	
5720	0	32990	32071	
5721	0	32856	31288	
5722	0	32672	32198	
5723	0	32596	32764	
5724	0	32714	32724	
5725	0	32820	32863	
5726	0	32936	32775	
