# OpenSignals Text File Format. Version 1
# {"00:07:80:4B:3C:23": {"position": 0, "device": "biosignalsplux", "device name": "00:07:80:4B:3C:23", "device connection": "BTH00:07:80:4B:3C:23", "sampling rate": 1000, "resolution": [16, 16], "firmware version": 776, "comments": "", "keywords": "", "mode": 0, "sync interval": 2, "date": "2024-9-26", "time": "11:40:1.490", "channels": [5, 7], "sensor": ["EMG", "EMG"], "label": ["CH5", "CH7"], "column": ["nSeq", "DI", "CH5", "CH7"], "special": [{"SpO2": [80, 40, 5, 4, 3, 3]}, {"SpO2": [80, 40, 5, 4, 3, 3]}, {"SpO2": [80, 40, 5, 4, 3, 3]}, {"SpO2": [80, 40, 5, 4, 3, 3]}, {"SpO2": [80, 40, 5, 4, 3, 3]}, {"SpO2": [80, 40, 5, 4, 3, 3]}, {"SpO2": [80, 40, 5, 4, 3, 3]}, {"SpO2": [80, 40, 5, 4, 3, 3]}], "digital IO": [0, 1], "sleeve color": ["gray", "brown"]}}
# EndOfHeader
0	0	32788	32532	
1	0	32660	32435	
2	0	32706	32391	
3	0	32692	32484	
4	0	32768	32437	
5	0	32732	32231	
6	0	32794	31943	
7	0	32822	31972	
8	0	32836	32174	
9	0	32820	32215	
10	0	32588	32103	
11	0	32588	32039	
12	0	32892	32206	
13	0	33030	32554	
14	0	33213	32596	
15	0	33247	32639	
16	0	33248	32871	
17	0	33136	32683	
18	0	33236	32855	
19	0	33078	32567	
20	0	32906	32604	
21	0	32894	32467	
22	0	32652	32423	
23	0	32586	32583	
24	0	32524	32381	
25	0	32538	32452	
26	0	32660	32567	
27	0	32880	32670	
28	0	33056	32423	
29	0	33000	32323	
30	0	33040	32043	
31	0	32820	31799	
32	0	32756	31767	
33	0	32749	32084	
34	0	32904	32310	
35	0	32998	32570	
36	0	32849	32455	
37	0	32801	32412	
38	0	32769	32449	
39	0	32808	32485	
40	0	32892	32487	
41	0	32963	32419	
42	0	32834	32383	
43	0	32852	32454	
44	0	32764	32263	
45	0	32772	32385	
46	0	32842	32455	
47	0	32820	32620	
48	0	32872	32670	
49	0	32786	32512	
50	0	32910	32423	
51	0	32880	32364	
52	0	32972	32303	
53	0	32780	32244	
54	0	32789	32242	
55	0	32780	32299	
56	0	32790	32502	
57	0	32768	32492	
58	0	32804	32638	
59	0	32736	32610	
60	0	32656	32500	
61	0	32636	32487	
62	0	32726	32314	
63	0	32766	32293	
64	0	32823	32453	
65	0	32750	32311	
66	0	32758	32351	
67	0	32816	32415	
68	0	32772	32479	
69	0	32814	32719	
70	0	32680	32671	
71	0	32788	32606	
72	0	32889	32148	
73	0	32760	32556	
74	0	32644	32511	
75	0	32608	32263	
76	0	32650	32604	
77	0	32644	32316	
78	0	32757	32499	
79	0	32778	32295	
80	0	32804	32343	
81	0	32814	32415	
82	0	32880	32359	
83	0	32740	32252	
84	0	32818	32596	
85	0	32897	32364	
86	0	32772	32582	
87	0	32792	32310	
88	0	32740	32579	
89	0	32748	32166	
90	0	32815	32384	
91	0	32704	32414	
92	0	32708	32170	
93	0	32820	32617	
94	0	32705	32263	
95	0	32830	32591	
96	0	32808	32309	
97	0	32912	32667	
98	0	32668	32167	
99	0	32846	32692	
100	0	32946	32221	
101	0	32828	32700	
102	0	32788	32202	
103	0	32799	32697	
104	0	32640	32263	
105	0	32611	32487	
106	0	32848	32628	
107	0	32944	32398	
108	0	32774	32703	
109	0	32720	32204	
110	0	32752	32295	
111	0	32672	32467	
112	0	32816	32052	
113	0	32870	32468	
114	0	32562	32119	
115	0	32380	31842	
116	0	32390	32055	
117	0	32286	32367	
118	0	32252	32255	
119	0	32052	32116	
120	0	32202	32159	
121	0	32144	32437	
122	0	32012	32391	
123	0	32174	32615	
124	0	32144	31975	
125	0	32338	32519	
126	0	32124	32408	
127	0	32212	32580	
128	0	32508	32628	
129	0	32794	32548	
130	0	33088	32679	
131	0	33518	32263	
132	0	33716	32596	
133	0	33904	32058	
134	0	33778	32327	
135	0	33784	32227	
136	0	33764	32251	
137	0	33690	32035	
138	0	33536	31942	
139	0	33712	32586	
140	0	34020	32727	
141	0	34280	32655	
142	0	34244	32711	
143	0	34334	32838	
144	0	34476	32814	
145	0	34904	32743	
146	0	35212	32492	
147	0	35482	32518	
148	0	35028	32415	
149	0	34786	32424	
150	0	34381	32469	
151	0	33630	32390	
152	0	32868	32616	
153	0	32292	32519	
154	0	31809	32198	
155	0	31488	32068	
156	0	31380	32092	
157	0	31480	32007	
158	0	31448	32220	
159	0	31452	32159	
160	0	31404	32311	
161	0	31282	32552	
162	0	31004	32561	
163	0	31082	32719	
164	0	31124	32327	
165	0	31232	32532	
166	0	31264	32204	
167	0	31316	32403	
168	0	31262	32160	
169	0	31364	32143	
170	0	31369	32611	
171	0	31452	32193	
172	0	31466	32548	
173	0	31586	31943	
174	0	31684	32407	
175	0	31928	32207	
176	0	32120	32373	
177	0	32236	32447	
178	0	32668	32406	
179	0	32996	32838	
180	0	33080	32252	
181	0	33240	32583	
182	0	33290	32141	
183	0	33428	32679	
184	0	33380	32427	
185	0	33476	32599	
186	0	33452	32325	
187	0	33448	32823	
188	0	33406	32300	
189	0	33380	32487	
190	0	33410	32207	
191	0	33324	31902	
192	0	33280	31879	
193	0	33348	32262	
194	0	33350	32335	
195	0	33228	32510	
196	0	33232	32638	
197	0	33004	32662	
198	0	33104	32684	
199	0	33032	32834	
200	0	32932	32673	
201	0	32894	32614	
202	0	32818	32553	
203	0	32930	32543	
204	0	32860	32542	
205	0	32836	32479	
206	0	32792	32278	
207	0	32864	32231	
208	0	32792	32339	
209	0	32854	32290	
210	0	32805	32347	
211	0	32752	32287	
212	0	32792	32151	
213	0	32862	32253	
214	0	32860	32350	
215	0	32868	32295	
216	0	32764	32135	
217	0	32726	31840	
218	0	32836	31879	
219	0	32810	32235	
220	0	32852	32252	
221	0	32844	32306	
222	0	32840	32423	
223	0	32834	32692	
224	0	32846	32759	
225	0	32794	32614	
226	0	32765	32622	
227	0	32798	32492	
228	0	32844	32706	
229	0	32824	32675	
230	0	32838	32583	
231	0	32888	32330	
232	0	32800	32250	
233	0	32836	32159	
234	0	32797	32071	
235	0	32794	32169	
236	0	32748	32483	
237	0	32672	32239	
238	0	32824	32559	
239	0	32880	32436	
240	0	32876	32238	
241	0	32732	31918	
242	0	32760	32104	
243	0	32768	32206	
244	0	32740	32181	
245	0	32672	32231	
246	0	32750	32369	
247	0	32856	32319	
248	0	32854	32372	
249	0	32748	32437	
250	0	32810	32510	
251	0	32888	32251	
252	0	32884	32263	
253	0	32796	32423	
254	0	32872	32352	
255	0	32722	32538	
256	0	32740	32807	
257	0	32716	32669	
258	0	32834	32390	
259	0	32832	32038	
260	0	32896	32179	
261	0	32870	32244	
262	0	32754	32055	
263	0	32782	32342	
264	0	32824	32362	
265	0	32764	32132	
266	0	32808	32727	
267	0	32804	32475	
268	0	32792	32854	
269	0	32812	32599	
270	0	32812	32799	
271	0	32804	32334	
272	0	32780	32391	
273	0	32700	32516	
274	0	32775	32348	
275	0	32914	32839	
276	0	32848	32479	
277	0	32774	32655	
278	0	32832	32570	
279	0	32782	32146	
280	0	32792	32407	
281	0	32860	32005	
282	0	32682	32242	
283	0	32932	32675	
284	0	32824	32215	
285	0	32866	32514	
286	0	32800	32320	
287	0	32756	31865	
288	0	32778	32562	
289	0	32738	32223	
290	0	32864	32615	
291	0	32824	32603	
292	0	32780	32263	
293	0	32734	32591	
294	0	32822	32327	
295	0	32728	32391	
296	0	32708	32719	
297	0	32828	32127	
298	0	32748	32415	
299	0	32804	32282	
300	0	32798	32214	
301	0	32748	32679	
302	0	32832	32543	
303	0	32789	32327	
304	0	32844	32703	
305	0	32896	32493	
306	0	32840	32359	
307	0	32865	32719	
308	0	32794	32519	
309	0	32880	32615	
310	0	32882	32583	
311	0	32853	32455	
312	0	32924	32487	
313	0	32738	32397	
314	0	32828	32431	
315	0	32744	32487	
316	0	32782	32638	
317	0	32892	32695	
318	0	32910	32738	
319	0	32810	32770	
320	0	32868	32727	
321	0	32816	32491	
322	0	32744	32719	
323	0	32831	32663	
324	0	32932	32567	
325	0	32844	32511	
326	0	32831	32335	
327	0	32708	32339	
328	0	32886	32199	
329	0	32788	32454	
330	0	32758	32303	
331	0	32768	32311	
332	0	32868	32204	
333	0	32673	32247	
334	0	32820	32263	
335	0	32820	32046	
336	0	32876	31903	
337	0	32876	32082	
338	0	32801	31927	
339	0	32748	32092	
340	0	32713	32168	
341	0	32844	32340	
342	0	32775	32263	
343	0	32872	32670	
344	0	32816	32948	
345	0	32728	32819	
346	0	32838	32712	
347	0	32849	32543	
348	0	32828	32510	
349	0	32810	32348	
350	0	32737	32164	
351	0	32800	32211	
352	0	32828	32311	
353	0	32774	32546	
354	0	32746	32678	
355	0	32730	32551	
356	0	32748	32439	
357	0	32775	32199	
358	0	32920	32202	
359	0	32936	32295	
360	0	32798	32372	
361	0	32944	32458	
362	0	32874	32556	
363	0	32784	32187	
364	0	32898	32199	
365	0	32874	32239	
366	0	32814	32593	
367	0	32856	32647	
368	0	32796	32639	
369	0	32792	32838	
370	0	32914	32636	
371	0	32811	32583	
372	0	32796	32379	
373	0	32900	32119	
374	0	32874	32143	
375	0	32846	32319	
376	0	32806	32391	
377	0	32693	32498	
378	0	32794	32415	
379	0	32702	32310	
380	0	32876	32477	
381	0	32791	32647	
382	0	32716	32583	
383	0	32728	32647	
384	0	32716	32095	
385	0	32724	32407	
386	0	32762	32556	
387	0	32838	32148	
388	0	32860	32359	
389	0	32792	32280	
390	0	32852	32633	
391	0	32761	32735	
392	0	32791	32647	
393	0	32796	32287	
394	0	32742	32259	
395	0	32724	32119	
396	0	32760	32319	
397	0	32806	32484	
398	0	32708	32739	
399	0	32696	32190	
400	0	32720	32476	
401	0	32784	32343	
402	0	32874	32391	
403	0	32844	32127	
404	0	32824	32231	
405	0	32814	32156	
406	0	32782	32383	
407	0	32744	32679	
408	0	32684	32759	
409	0	32782	32578	
410	0	32785	32197	
411	0	32806	32215	
412	0	32806	32092	
413	0	32732	31991	
414	0	32650	32119	
415	0	32764	32383	
416	0	32652	32752	
417	0	32772	32729	
418	0	32524	32871	
419	0	32518	32575	
420	0	32620	32519	
421	0	32692	32839	
422	0	32664	32734	
423	0	32812	32702	
424	0	32750	32382	
425	0	32745	32284	
426	0	32772	32126	
427	0	32822	32391	
428	0	32884	32542	
429	0	32828	32606	
430	0	32892	32668	
431	0	32836	32622	
432	0	32648	32382	
433	0	32832	32262	
434	0	32924	32245	
435	0	32868	32445	
436	0	32852	32615	
437	0	32844	32459	
438	0	32894	31823	
439	0	32800	32287	
440	0	32692	32028	
441	0	32654	32636	
442	0	32661	32423	
443	0	32802	32263	
444	0	32880	32369	
445	0	32956	32534	
446	0	32862	32679	
447	0	32790	32657	
448	0	32612	32551	
449	0	32752	32239	
450	0	32732	32107	
451	0	32816	32327	
452	0	32900	32351	
453	0	33078	32519	
454	0	33092	32462	
455	0	33158	32463	
456	0	33260	32495	
457	0	33192	32658	
458	0	33109	32631	
459	0	32963	32655	
460	0	32842	32775	
461	0	32785	32719	
462	0	32692	32491	
463	0	32736	32539	
464	0	32772	32438	
465	0	32782	32407	
466	0	32888	32230	
467	0	32800	32263	
468	0	32752	32343	
469	0	32836	32491	
470	0	32844	32718	
471	0	32838	32374	
472	0	32990	32063	
473	0	32804	31926	
474	0	32884	32568	
475	0	32710	32238	
476	0	32762	32506	
477	0	32812	32210	
478	0	33010	32157	
479	0	32972	32262	
480	0	32892	32491	
481	0	32772	32636	
482	0	32880	32507	
483	0	32872	32519	
484	0	32765	32416	
485	0	32800	32359	
486	0	32784	32199	
487	0	32690	32299	
488	0	32824	32370	
489	0	32862	32546	
490	0	32704	32639	
491	0	32756	32671	
492	0	32820	32666	
493	0	32788	32639	
494	0	32748	32483	
495	0	32741	32124	
496	0	32816	32283	
497	0	32804	32607	
498	0	32772	32519	
499	0	32788	32647	
500	0	32764	32047	
501	0	32806	31727	
502	0	32816	31982	
503	0	32794	32332	
504	0	32752	32675	
505	0	32678	32823	
506	0	32760	32615	
507	0	32702	32415	
508	0	32858	32853	
509	0	32782	32455	
510	0	32780	32118	
511	0	32760	32545	
512	0	32868	32567	
513	0	32738	32294	
514	0	32740	32182	
515	0	32712	32032	
516	0	32688	32127	
517	0	32830	32486	
518	0	32758	32599	
519	0	32816	32610	
520	0	32764	32198	
521	0	32644	32108	
522	0	32770	32142	
523	0	32740	32446	
524	0	32817	32799	
525	0	32718	32839	
526	0	32759	32694	
527	0	32736	32599	
528	0	32738	32423	
529	0	32722	32455	
530	0	32732	32389	
531	0	32744	32263	
532	0	32772	32452	
533	0	32712	32575	
534	0	32897	32655	
535	0	32890	32603	
536	0	32828	32514	
537	0	32852	32367	
538	0	32912	32167	
539	0	32836	32260	
540	0	32788	32476	
541	0	32884	32661	
542	0	32808	32638	
543	0	32784	32148	
544	0	32708	31895	
545	0	32684	31879	
546	0	32769	32108	
547	0	32732	32498	
548	0	32670	32517	
549	0	32808	32454	
550	0	32868	32558	
551	0	32768	32647	
552	0	32708	32407	
553	0	32655	32441	
554	0	32548	32177	
555	0	32474	32156	
556	0	32360	32351	
557	0	32280	32455	
558	0	32276	32620	
559	0	32124	32620	
560	0	32056	32551	
561	0	31985	32660	
562	0	32016	32799	
563	0	31980	32616	
564	0	32184	32332	
565	0	32114	32328	
566	0	32096	32495	
567	0	32404	32529	
568	0	32824	32404	
569	0	33100	32435	
570	0	33408	32593	
571	0	33656	32471	
572	0	33938	32312	
573	0	33924	32495	
574	0	34000	32695	
575	0	33966	32758	
576	0	34064	32755	
577	0	34040	32854	
578	0	33868	32735	
579	0	34233	32662	
580	0	34438	32790	
581	0	34644	32830	
582	0	34684	32591	
583	0	34620	32454	
584	0	34746	32198	
585	0	35042	32252	
586	0	35452	32586	
587	0	35228	32664	
588	0	35072	32332	
589	0	34660	32159	
590	0	33376	32217	
591	0	32590	32604	
592	0	32028	32612	
593	0	31545	32514	
594	0	31052	32119	
595	0	30908	32541	
596	0	31300	32327	
597	0	31554	32626	
598	0	31470	32104	
599	0	31416	32373	
600	0	31237	32148	
601	0	31093	32644	
602	0	31100	32303	
603	0	31256	32703	
604	0	31169	32226	
605	0	31036	32132	
606	0	31108	31810	
607	0	31050	32069	
608	0	31094	32702	
609	0	31072	32343	
610	0	31196	32703	
611	0	31314	32234	
612	0	31316	32398	
613	0	31612	32606	
614	0	31924	32294	
615	0	32164	32667	
616	0	32320	32396	
617	0	32772	32570	
618	0	32950	32382	
619	0	33240	32486	
620	0	33337	32472	
621	0	33468	32229	
622	0	33538	32290	
623	0	33572	32279	
624	0	33576	32351	
625	0	33626	32614	
626	0	33596	32644	
627	0	33560	32600	
628	0	33332	32481	
629	0	33356	32263	
630	0	33412	32324	
631	0	33320	32518	
632	0	33268	32305	
633	0	33124	32250	
634	0	33130	32159	
635	0	33068	32207	
636	0	33066	32302	
637	0	33102	32132	
638	0	32972	32209	
639	0	32916	32230	
640	0	32958	32072	
641	0	32892	31839	
642	0	32996	31992	
643	0	32900	32422	
644	0	32992	32631	
645	0	32920	32587	
646	0	32798	32478	
647	0	32868	32423	
648	0	32768	32259	
649	0	32818	32127	
650	0	32830	32615	
651	0	32784	32710	
652	0	32806	32657	
653	0	32800	32482	
654	0	32656	32263	
655	0	32724	32222	
656	0	32832	32414	
657	0	32842	32227	
658	0	32794	32023	
659	0	32868	31613	
660	0	32762	31855	
661	0	32772	32300	
662	0	32807	32378	
663	0	32889	32099	
664	0	32804	31971	
665	0	32844	32468	
666	0	32864	32774	
667	0	32705	32493	
668	0	32690	32452	
669	0	32844	32390	
670	0	32794	32550	
671	0	32788	32550	
672	0	32744	32554	
673	0	32721	32709	
674	0	32894	32636	
675	0	32900	32487	
676	0	32820	32259	
677	0	32812	32319	
678	0	32710	32282	
679	0	32834	32324	
680	0	32761	32762	
681	0	32844	32807	
682	0	32746	32935	
683	0	32784	32703	
684	0	32674	32287	
685	0	32756	32004	
686	0	32868	31710	
687	0	32850	31450	
688	0	32872	31887	
689	0	32788	32263	
690	0	32834	32487	
691	0	32994	32721	
692	0	32897	33021	
693	0	32836	32927	
694	0	32990	32620	
695	0	32772	32317	
696	0	32670	32204	
697	0	32854	32387	
698	0	32692	32347	
699	0	32708	32411	
700	0	32664	32495	
701	0	32784	32554	
702	0	32804	32644	
703	0	32854	32920	
704	0	32800	32645	
705	0	32717	32263	
706	0	32688	32470	
707	0	32726	32679	
708	0	32836	32388	
709	0	32744	32351	
710	0	32816	32750	
711	0	32928	32775	
712	0	32936	32652	
713	0	32776	32631	
714	0	32808	32646	
715	0	32744	32498	
716	0	32673	32543	
717	0	32696	32391	
718	0	32720	32287	
719	0	32730	32236	
720	0	32774	32255	
721	0	32732	32294	
722	0	32800	32341	
723	0	32756	32323	
724	0	32974	32284	
725	0	32824	32295	
726	0	32812	32413	
727	0	32672	32410	
728	0	32776	32567	
729	0	32740	32325	
730	0	32724	32519	
731	0	32816	32624	
732	0	32824	32655	
733	0	32896	32710	
734	0	32846	32519	
735	0	32799	32622	
736	0	32840	32730	
737	0	32788	32750	
738	0	32718	32710	
739	0	32792	32735	
740	0	32792	32597	
741	0	32856	32666	
742	0	32797	32697	
743	0	32752	32710	
744	0	32718	32738	
745	0	32802	32591	
746	0	33006	32310	
747	0	32862	32307	
748	0	32742	32370	
749	0	32758	32477	
750	0	32828	32637	
751	0	32900	32687	
752	0	32849	32497	
753	0	33012	32423	
754	0	32804	32447	
755	0	32704	32542	
756	0	32724	32469	
757	0	32814	32423	
758	0	32784	32438	
759	0	32914	32486	
760	0	32856	32263	
761	0	32782	32711	
762	0	32772	32450	
763	0	32842	32758	
764	0	32980	32711	
765	0	32884	32622	
766	0	32980	32622	
767	0	32804	32663	
768	0	32788	32576	
769	0	32720	32595	
770	0	32780	32455	
771	0	32764	32510	
772	0	32784	32434	
773	0	32886	32298	
774	0	32804	32246	
775	0	32652	32207	
776	0	32578	32444	
777	0	32728	32563	
778	0	32876	32670	
779	0	32768	32694	
780	0	32878	32492	
781	0	32993	32460	
782	0	32953	32296	
783	0	32836	32122	
784	0	32767	32110	
785	0	32836	32263	
786	0	32871	32414	
787	0	32808	32470	
788	0	32820	32575	
789	0	32788	32646	
790	0	32708	32642	
791	0	32614	32655	
792	0	32818	32623	
793	0	32922	32678	
794	0	32807	32583	
795	0	32652	32498	
796	0	32796	32423	
797	0	32810	32555	
798	0	32846	32591	
799	0	33002	32695	
800	0	32964	32583	
801	0	32818	32431	
802	0	32968	32060	
803	0	32821	31879	
804	0	32816	32007	
805	0	32652	32164	
806	0	33058	32122	
807	0	32960	32263	
808	0	32754	32263	
809	0	32590	32167	
810	0	32782	32364	
811	0	32884	32679	
812	0	32990	32798	
813	0	32862	32543	
814	0	32849	32235	
815	0	32820	32167	
816	0	32840	32327	
817	0	32846	32492	
818	0	32765	32343	
819	0	32703	32159	
820	0	32836	32068	
821	0	32774	32263	
822	0	32676	32613	
823	0	32718	32684	
824	0	32838	32826	
825	0	32745	32407	
826	0	32832	32324	
827	0	32728	32226	
828	0	32752	32644	
829	0	32736	32607	
830	0	32805	32467	
831	0	32774	32263	
832	0	32749	32285	
833	0	32796	32294	
834	0	32652	32150	
835	0	32740	32163	
836	0	32778	32213	
837	0	32844	32263	
838	0	32764	32511	
839	0	32772	32647	
840	0	32828	32263	
841	0	32842	31900	
842	0	32844	32238	
843	0	32804	32135	
844	0	32808	32081	
845	0	32708	32431	
846	0	32748	32571	
847	0	32797	32172	
848	0	32824	32132	
849	0	32788	32372	
850	0	32724	32434	
851	0	32792	32492	
852	0	32650	32335	
853	0	32760	32502	
854	0	32712	32558	
855	0	32700	32544	
856	0	32844	32605	
857	0	32834	32199	
858	0	32672	32503	
859	0	32676	32334	
860	0	32538	32471	
861	0	32594	32477	
862	0	32550	32424	
863	0	32580	32684	
864	0	32626	32314	
865	0	32604	32538	
866	0	32812	32686	
867	0	32688	32311	
868	0	32766	32694	
869	0	32752	32679	
870	0	32756	32437	
871	0	32804	32260	
872	0	32949	32036	
873	0	32844	32095	
874	0	32716	32135	
875	0	32748	32079	
876	0	32928	32185	
877	0	32926	32215	
878	0	32897	32727	
879	0	33015	32775	
880	0	33022	32770	
881	0	32804	32775	
882	0	32589	32806	
883	0	32676	32750	
884	0	32814	32575	
885	0	33000	32522	
886	0	32944	32484	
887	0	32924	32295	
888	0	32838	32050	
889	0	32687	32135	
890	0	32654	32279	
891	0	32750	32282	
892	0	32808	32513	
893	0	32840	32509	
894	0	32972	32543	
895	0	33108	32479	
896	0	33164	32346	
897	0	33228	32199	
898	0	33204	32323	
899	0	33080	32257	
900	0	33050	32223	
901	0	32932	32295	
902	0	32772	32327	
903	0	32752	32244	
904	0	32656	32308	
905	0	32632	32543	
906	0	32782	32644	
907	0	32836	32583	
908	0	32954	32447	
909	0	32872	32226	
910	0	32820	32263	
911	0	32852	32463	
912	0	32752	32455	
913	0	32844	32218	
914	0	32892	32676	
915	0	32860	32319	
916	0	32766	32420	
917	0	32706	32564	
918	0	32810	32295	
919	0	32896	32647	
920	0	32826	32590	
921	0	32836	32557	
922	0	32930	32391	
923	0	32824	32825	
924	0	32768	32378	
925	0	32790	32597	
926	0	32722	32108	
927	0	32640	32399	
928	0	32768	32079	
929	0	32758	32380	
930	0	32885	31999	
931	0	32944	31983	
932	0	32732	32359	
933	0	32676	32293	
934	0	32882	32876	
935	0	32838	32580	
936	0	32868	32637	
937	0	32736	32460	
938	0	32828	32815	
939	0	32736	32645	
940	0	32775	32756	
941	0	32788	32119	
942	0	32751	32196	
943	0	32726	31647	
944	0	32668	32263	
945	0	32724	32377	
946	0	32862	32727	
947	0	32790	32519	
948	0	32724	32460	
949	0	32724	32134	
950	0	32812	32263	
951	0	32817	32396	
952	0	32694	32468	
953	0	32752	32547	
954	0	32770	32567	
955	0	32720	32471	
956	0	32718	32517	
957	0	32889	32568	
958	0	32652	32322	
959	0	32724	32571	
960	0	32628	32076	
961	0	32880	32486	
962	0	32900	32165	
963	0	32741	32335	
964	0	32632	32508	
965	0	32790	32370	
966	0	32816	32738	
967	0	32756	32559	
968	0	32784	32599	
969	0	32716	32663	
970	0	32758	32719	
971	0	32804	32763	
972	0	32752	32632	
973	0	32732	32034	
974	0	32812	32123	
975	0	32823	32249	
976	0	32858	32542	
977	0	32868	32794	
978	0	32849	32801	
979	0	32812	32694	
980	0	32912	32812	
981	0	32920	32798	
982	0	32810	32839	
983	0	32740	32614	
984	0	32784	32448	
985	0	32828	32347	
986	0	32788	32691	
987	0	32790	32582	
988	0	32816	32647	
989	0	32696	32518	
990	0	32788	32239	
991	0	32780	32127	
992	0	32726	32379	
993	0	32768	32391	
994	0	32672	32742	
995	0	32474	32351	
996	0	32378	32679	
997	0	32226	32653	
998	0	32296	32544	
999	0	32300	32799	
1000	0	32244	32371	
1001	0	32072	32663	
1002	0	31756	32127	
1003	0	31898	32491	
1004	0	31950	32092	
1005	0	31970	31895	
1006	0	32032	32348	
1007	0	31940	32223	
1008	0	31892	32302	
1009	0	32300	32196	
1010	0	32852	32263	
1011	0	33368	32239	
1012	0	33536	32226	
1013	0	33780	32104	
1014	0	33912	32044	
1015	0	34032	32090	
1016	0	34076	32262	
1017	0	34032	32390	
1018	0	34090	32436	
1019	0	34174	32374	
1020	0	34451	32302	
1021	0	34570	32364	
1022	0	35176	32209	
1023	0	35216	32087	
1024	0	35036	32196	
1025	0	34904	32351	
1026	0	35120	32382	
1027	0	35772	32488	
1028	0	35790	32436	
1029	0	35648	32487	
1030	0	35182	32538	
1031	0	34310	32500	
1032	0	32964	32625	
1033	0	32132	32647	
1034	0	31524	32484	
1035	0	31048	32423	
1036	0	30796	32285	
1037	0	30636	32450	
1038	0	31172	32415	
1039	0	31308	32647	
1040	0	31148	32864	
1041	0	31022	32860	
1042	0	30816	32818	
1043	0	31058	32661	
1044	0	31164	32734	
1045	0	31070	32623	
1046	0	30982	32687	
1047	0	30990	32494	
1048	0	30814	32327	
1049	0	30746	32296	
1050	0	30800	32330	
1051	0	30884	32391	
1052	0	31070	32538	
1053	0	30996	32434	
1054	0	31426	32435	
1055	0	31700	32572	
1056	0	31948	32581	
1057	0	32292	32374	
1058	0	32600	32299	
1059	0	32972	32282	
1060	0	33147	32375	
1061	0	33308	32559	
1062	0	33524	32524	
1063	0	33664	32532	
1064	0	33746	32543	
1065	0	33848	32693	
1066	0	33696	32597	
1067	0	33730	32374	
1068	0	33522	32340	
1069	0	33536	32519	
1070	0	33522	32403	
1071	0	33252	32148	
1072	0	33216	31967	
1073	0	33192	32162	
1074	0	33188	32172	
1075	0	33188	32206	
1076	0	33256	32180	
1077	0	32916	32154	
1078	0	32834	32068	
1079	0	32912	32231	
1080	0	32724	32251	
1081	0	32853	32439	
1082	0	33004	32504	
1083	0	33148	32578	
1084	0	33030	32569	
1085	0	32878	32532	
1086	0	32956	32415	
1087	0	33076	32228	
1088	0	33178	32444	
1089	0	32992	32501	
1090	0	32932	32571	
1091	0	33048	32610	
1092	0	32752	32558	
1093	0	32572	32570	
1094	0	32648	32519	
1095	0	32924	32442	
1096	0	32828	32582	
1097	0	32438	32506	
1098	0	32710	32470	
1099	0	32742	32314	
1100	0	32714	32375	
1101	0	32772	32300	
1102	0	32780	32847	
1103	0	32828	32263	
1104	0	33004	32532	
1105	0	32894	32423	
1106	0	32756	32383	
1107	0	32712	32244	
1108	0	32952	32183	
1109	0	32840	32148	
1110	0	32654	32255	
1111	0	32726	32228	
1112	0	32588	32312	
1113	0	32660	32327	
1114	0	32774	32243	
1115	0	32664	32231	
1116	0	32768	32238	
1117	0	32792	32263	
1118	0	32720	32342	
1119	0	32820	32366	
1120	0	32976	32382	
1121	0	33022	32502	
1122	0	32970	32549	
1123	0	33038	32535	
1124	0	33041	32627	
1125	0	32986	32660	
1126	0	33036	32572	
1127	0	33136	32372	
1128	0	32920	32647	
1129	0	32836	32711	
1130	0	32756	32519	
1131	0	32692	32539	
1132	0	32644	32646	
1133	0	32844	32447	
1134	0	32744	32482	
1135	0	32656	32742	
1136	0	32678	32807	
1137	0	32472	32834	
1138	0	32644	32821	
1139	0	32616	32677	
1140	0	32960	32605	
1141	0	32764	32519	
1142	0	32828	32519	
1143	0	32774	32418	
1144	0	33114	32404	
1145	0	33180	32247	
1146	0	32800	32183	
1147	0	32808	32391	
1148	0	32760	32350	
1149	0	32716	32127	
1150	0	32728	31790	
1151	0	32768	31788	
1152	0	32694	31646	
1153	0	32648	31986	
1154	0	32716	32217	
1155	0	32548	32319	
1156	0	32801	32519	
1157	0	32628	32615	
1158	0	32924	32775	
1159	0	32980	32775	
1160	0	33044	32679	
1161	0	32964	32719	
1162	0	32780	32679	
1163	0	32750	32750	
1164	0	32638	32740	
1165	0	32836	32424	
1166	0	32838	32243	
1167	0	32756	32143	
1168	0	32644	32180	
1169	0	32730	32111	
1170	0	32752	32327	
1171	0	32704	32212	
1172	0	32720	32295	
1173	0	32636	32495	
1174	0	32644	32657	
1175	0	32912	32639	
1176	0	32716	32227	
1177	0	32658	32295	
1178	0	32726	31989	
1179	0	32655	31780	
1180	0	32986	32078	
1181	0	33292	32423	
1182	0	32988	32522	
1183	0	32916	32666	
1184	0	32584	32647	
1185	0	32980	32723	
1186	0	32784	32567	
1187	0	32700	32582	
1188	0	32964	32451	
1189	0	32734	32311	
1190	0	32931	32454	
1191	0	32794	32348	
1192	0	32684	32199	
1193	0	32801	32135	
1194	0	32924	32239	
1195	0	33302	32355	
1196	0	33192	32506	
1197	0	32978	32371	
1198	0	32964	32391	
1199	0	32964	32385	
1200	0	32904	32519	
1201	0	32918	32437	
1202	0	32548	32308	
1203	0	32405	32694	
1204	0	32596	32248	
1205	0	32540	32663	
1206	0	32408	32428	
1207	0	32624	32263	
1208	0	32742	32447	
1209	0	32612	32362	
1210	0	32616	32647	
1211	0	32760	32687	
1212	0	33006	32607	
1213	0	32840	32550	
1214	0	32952	32534	
1215	0	33056	32500	
1216	0	33014	32391	
1217	0	32816	32190	
1218	0	32748	32007	
1219	0	32837	32038	
1220	0	32898	32543	
1221	0	32702	32694	
1222	0	32544	32731	
1223	0	32832	32292	
1224	0	32888	32503	
1225	0	33004	32638	
1226	0	32775	32391	
1227	0	32824	32456	
1228	0	32602	31982	
1229	0	32426	32079	
1230	0	32762	32527	
1231	0	32974	32655	
1232	0	32444	32538	
1233	0	32896	32682	
1234	0	33132	32688	
1235	0	33041	32511	
1236	0	32812	32375	
1237	0	32664	32582	
1238	0	32632	32839	
1239	0	32868	32476	
1240	0	32993	32367	
1241	0	32876	32391	
1242	0	32896	32671	
1243	0	32792	32911	
1244	0	33028	32702	
1245	0	32848	32578	
1246	0	32772	32257	
1247	0	32872	32250	
1248	0	32840	32428	
1249	0	32545	32327	
1250	0	32880	32287	
1251	0	32914	32215	
1252	0	33356	32236	
1253	0	32732	31894	
1254	0	32650	32076	
1255	0	32806	32348	
1256	0	32806	32324	
1257	0	33120	32382	
1258	0	33524	32607	
1259	0	33400	32622	
1260	0	32664	32484	
1261	0	32574	32643	
1262	0	32605	32490	
1263	0	32433	32213	
1264	0	32608	32499	
1265	0	32740	32002	
1266	0	32885	32439	
1267	0	32548	32038	
1268	0	32620	32506	
1269	0	32786	32133	
1270	0	32810	32351	
1271	0	32884	32133	
1272	0	32696	32591	
1273	0	32612	32660	
1274	0	32420	32889	
1275	0	32636	32414	
1276	0	32560	32876	
1277	0	32928	32479	
1278	0	32646	32490	
1279	0	32677	32438	
1280	0	32420	32343	
1281	0	32458	32190	
1282	0	32818	32187	
1283	0	32756	32315	
1284	0	32614	32404	
1285	0	32784	32175	
1286	0	32817	32151	
1287	0	32899	32235	
1288	0	32916	32283	
1289	0	32832	32007	
1290	0	33028	32183	
1291	0	33016	32839	
1292	0	33072	32647	
1293	0	32612	32950	
1294	0	32588	32402	
1295	0	32820	32798	
1296	0	32918	32133	
1297	0	33010	32399	
1298	0	32974	31843	
1299	0	32828	32004	
1300	0	32861	32004	
1301	0	32758	32689	
1302	0	32670	32567	
1303	0	32876	32318	
1304	0	33009	32399	
1305	0	32774	32089	
1306	0	32792	32662	
1307	0	32926	32375	
1308	0	32602	32502	
1309	0	32452	32327	
1310	0	32630	32692	
1311	0	32672	32487	
1312	0	32798	32688	
1313	0	32724	32319	
1314	0	32680	32774	
1315	0	32580	32290	
1316	0	32586	32775	
1317	0	32902	32135	
1318	0	33020	32610	
1319	0	32970	32263	
1320	0	32916	32222	
1321	0	32807	32127	
1322	0	32978	32263	
1323	0	32938	32559	
1324	0	32952	32530	
1325	0	32794	32596	
1326	0	32904	32814	
1327	0	32664	32678	
1328	0	32885	32532	
1329	0	32980	32516	
1330	0	32738	32500	
1331	0	32430	32376	
1332	0	32440	32551	
1333	0	32392	32132	
1334	0	32640	32503	
1335	0	32782	32181	
1336	0	32832	32447	
1337	0	32865	32462	
1338	0	32592	32285	
1339	0	32784	32653	
1340	0	32948	32447	
1341	0	32976	32308	
1342	0	32844	32143	
1343	0	32976	32244	
1344	0	33008	32250	
1345	0	33020	32346	
1346	0	33252	32318	
1347	0	33464	32375	
1348	0	33498	32253	
1349	0	33372	32500	
1350	0	32932	32839	
1351	0	32880	32629	
1352	0	32784	32399	
1353	0	32540	32244	
1354	0	32488	32126	
1355	0	32648	32303	
1356	0	32946	31833	
1357	0	32812	31644	
1358	0	32456	31990	
1359	0	32704	32583	
1360	0	32888	32775	
1361	0	32792	32615	
1362	0	32912	32389	
1363	0	32732	32359	
1364	0	32846	32764	
1365	0	32816	32799	
1366	0	32983	32278	
1367	0	33104	32047	
1368	0	33186	32468	
1369	0	33036	32543	
1370	0	32620	32536	
1371	0	32650	32527	
1372	0	32900	32572	
1373	0	32876	32391	
1374	0	32636	32568	
1375	0	32868	32433	
1376	0	33002	32184	
1377	0	32708	32348	
1378	0	32762	32547	
1379	0	32988	32660	
1380	0	32828	32343	
1381	0	32846	32169	
1382	0	32564	32058	
1383	0	32648	32309	
1384	0	32600	32295	
1385	0	32607	32212	
1386	0	32924	32391	
1387	0	32724	32717	
1388	0	32852	32899	
1389	0	32863	32903	
1390	0	32704	32647	
1391	0	32852	32175	
1392	0	32758	32107	
1393	0	32688	32042	
1394	0	32942	31983	
1395	0	32884	32007	
1396	0	32748	32345	
1397	0	32548	32190	
1398	0	32584	32358	
1399	0	32684	32471	
1400	0	32652	32389	
1401	0	32499	32513	
1402	0	32702	32635	
1403	0	32606	32807	
1404	0	32724	33002	
1405	0	32816	32999	
1406	0	32740	32442	
1407	0	32974	32098	
1408	0	32844	32111	
1409	0	32922	32134	
1410	0	32794	32076	
1411	0	32742	32163	
1412	0	32714	32615	
1413	0	32782	32431	
1414	0	32930	32615	
1415	0	32824	32786	
1416	0	32849	32762	
1417	0	32742	32345	
1418	0	32636	32260	
1419	0	32836	31871	
1420	0	32749	32372	
1421	0	32828	31961	
1422	0	32744	32331	
1423	0	32724	32327	
1424	0	32693	32655	
1425	0	32662	32583	
1426	0	32692	32499	
1427	0	32908	32078	
1428	0	32802	31999	
1429	0	32934	32695	
1430	0	32942	32943	
1431	0	33116	32702	
1432	0	33174	32918	
1433	0	32820	32663	
1434	0	32538	32405	
1435	0	32402	32633	
1436	0	32326	32543	
1437	0	32529	32119	
1438	0	32946	32103	
1439	0	33096	32164	
1440	0	32732	32182	
1441	0	32638	32030	
1442	0	32856	32007	
1443	0	32808	31717	
1444	0	32536	32042	
1445	0	32174	32386	
1446	0	32080	32450	
1447	0	32164	32471	
1448	0	32358	32647	
1449	0	32368	32333	
1450	0	31952	32311	
1451	0	31894	32375	
1452	0	32021	32564	
1453	0	31877	33009	
1454	0	31849	32895	
1455	0	31988	32350	
1456	0	32136	31850	
1457	0	32289	32129	
1458	0	32292	32452	
1459	0	32647	32372	
1460	0	33058	32244	
1461	0	33074	32295	
1462	0	33476	32377	
1463	0	33744	32463	
1464	0	33812	32518	
1465	0	33824	32428	
1466	0	34182	32156	
1467	0	34228	32508	
1468	0	34104	32647	
1469	0	34084	32710	
1470	0	34442	32812	
1471	0	35316	32775	
1472	0	35712	32571	
1473	0	35272	32603	
1474	0	34752	32455	
1475	0	35164	32359	
1476	0	35665	32436	
1477	0	36318	32728	
1478	0	36358	32881	
1479	0	35604	32940	
1480	0	34664	32708	
1481	0	33906	32710	
1482	0	32848	32542	
1483	0	32058	32422	
1484	0	31430	32318	
1485	0	30744	32228	
1486	0	30452	32226	
1487	0	30394	32341	
1488	0	30548	32311	
1489	0	30818	32320	
1490	0	30682	32285	
1491	0	30760	32034	
1492	0	30908	32288	
1493	0	30954	32199	
1494	0	31106	32222	
1495	0	31164	32243	
1496	0	31124	32290	
1497	0	31128	32417	
1498	0	31008	32382	
1499	0	30792	32274	
1500	0	30862	32212	
1501	0	31092	32158	
1502	0	31244	32492	
1503	0	31438	32674	
1504	0	31816	32164	
1505	0	31958	32159	
1506	0	32196	31943	
1507	0	32416	32116	
1508	0	32670	32365	
1509	0	32922	32438	
1510	0	33076	32455	
1511	0	33258	32391	
1512	0	33444	32463	
1513	0	33752	32710	
1514	0	33564	32628	
1515	0	33380	32310	
1516	0	33508	32258	
1517	0	33520	32167	
1518	0	33516	31792	
1519	0	33452	31943	
1520	0	33342	31796	
1521	0	33606	31567	
1522	0	33474	32282	
1523	0	33380	32292	
1524	0	33156	32724	
1525	0	33076	32534	
1526	0	33086	32222	
1527	0	33190	32770	
1528	0	32917	32391	
1529	0	32772	32071	
1530	0	32602	32670	
1531	0	32708	32575	
1532	0	32894	32345	
1533	0	32912	32599	
1534	0	33144	32215	
1535	0	32956	32588	
1536	0	32776	32295	
1537	0	32868	32503	
1538	0	32828	32775	
1539	0	32784	32519	
1540	0	32962	32976	
1541	0	32916	32446	
1542	0	32830	32911	
1543	0	32792	32483	
1544	0	32771	32491	
1545	0	32900	32263	
1546	0	32870	32191	
1547	0	32692	32034	
1548	0	32982	32014	
1549	0	33148	32079	
1550	0	32919	32170	
1551	0	32828	32187	
1552	0	32775	32406	
1553	0	32730	32330	
1554	0	32528	32342	
1555	0	32728	32289	
1556	0	32884	32727	
1557	0	32814	32614	
1558	0	32890	32575	
1559	0	32924	32698	
1560	0	32861	32796	
1561	0	32916	32695	
1562	0	32918	32674	
1563	0	32884	32496	
1564	0	32631	32577	
1565	0	32609	32443	
1566	0	32640	32423	
1567	0	32812	32560	
1568	0	32836	32623	
1569	0	32840	32670	
1570	0	32724	32391	
1571	0	32764	32239	
1572	0	32864	32423	
1573	0	32862	32518	
1574	0	33004	32479	
1575	0	32926	32726	
1576	0	32758	32583	
1577	0	32760	32807	
1578	0	32632	32846	
1579	0	32670	32618	
1580	0	32564	32428	
1581	0	32761	32322	
1582	0	32996	32411	
1583	0	32782	32129	
1584	0	32610	31868	
1585	0	32506	31990	
1586	0	32582	32135	
1587	0	32734	32054	
1588	0	32998	32628	
1589	0	33072	32324	
1590	0	32852	32049	
1591	0	32808	32695	
1592	0	32761	32432	
1593	0	33044	32503	
1594	0	32788	32916	
1595	0	32712	32511	
1596	0	32692	32455	
1597	0	32740	32743	
1598	0	32740	32340	
1599	0	32662	32820	
1600	0	32853	32486	
1601	0	32992	32420	
1602	0	32836	32111	
1603	0	32938	31940	
1604	0	33050	32007	
1605	0	32964	32314	
1606	0	32764	32438	
1607	0	32734	32588	
1608	0	32796	32419	
1609	0	32836	32563	
1610	0	32796	32556	
1611	0	32812	32742	
1612	0	32671	32718	
1613	0	32732	32679	
1614	0	32884	32554	
1615	0	32850	32670	
1616	0	32844	32578	
1617	0	32828	32724	
1618	0	32678	32221	
1619	0	32752	32263	
1620	0	32660	32007	
1621	0	32748	32518	
1622	0	32716	32451	
1623	0	32738	32327	
1624	0	32680	32362	
1625	0	32958	32291	
1626	0	32996	32263	
1627	0	32922	32412	
1628	0	32732	32455	
1629	0	32830	32487	
1630	0	32938	32602	
1631	0	32768	32623	
1632	0	32716	32614	
1633	0	32852	32602	
1634	0	32900	32423	
1635	0	32664	32322	
1636	0	32816	32366	
1637	0	32746	32166	
1638	0	32684	32028	
1639	0	32804	32129	
1640	0	33032	32503	
1641	0	32832	32727	
1642	0	32834	32746	
1643	0	32824	32827	
1644	0	32788	32714	
1645	0	32824	32747	
1646	0	32944	32595	
1647	0	32980	32450	
1648	0	32550	32255	
1649	0	32450	32290	
1650	0	32536	32247	
1651	0	32756	32263	
1652	0	32866	32286	
1653	0	32724	32659	
1654	0	32892	32719	
1655	0	32784	32597	
1656	0	33000	32503	
1657	0	33036	32431	
1658	0	33048	32387	
1659	0	32856	32193	
1660	0	32828	32150	
1661	0	32804	32151	
1662	0	32799	32256	
1663	0	32766	32382	
1664	0	32732	32575	
1665	0	32732	32700	
1666	0	32732	32823	
1667	0	32775	32751	
1668	0	32672	32751	
1669	0	32672	32495	
1670	0	32774	32203	
1671	0	32748	31935	
1672	0	32900	31831	
1673	0	32896	31804	
1674	0	32844	31830	
1675	0	32874	32359	
1676	0	32944	32535	
1677	0	32758	32835	
1678	0	32818	32967	
1679	0	32728	32767	
1680	0	32908	32448	
1681	0	32929	32631	
1682	0	32798	32786	
1683	0	32668	32546	
1684	0	32664	32213	
1685	0	32900	31924	
1686	0	32890	32132	
1687	0	32648	32511	
1688	0	32954	32881	
1689	0	32826	32883	
1690	0	32840	32763	
1691	0	32852	32529	
1692	0	32815	32475	
1693	0	32868	32174	
1694	0	32784	31933	
1695	0	32788	32179	
1696	0	32750	32462	
1697	0	32798	32490	
1698	0	32802	32261	
1699	0	32884	32094	
1700	0	32889	32174	
1701	0	32984	32287	
1702	0	32984	32148	
1703	0	32889	32132	
1704	0	32744	32119	
1705	0	32756	32167	
1706	0	32796	32175	
1707	0	32784	32263	
1708	0	32956	32410	
1709	0	32906	32439	
1710	0	32766	32296	
1711	0	32650	32298	
1712	0	32684	32213	
1713	0	32708	32241	
1714	0	32780	32420	
1715	0	32721	32447	
1716	0	32820	32478	
1717	0	32890	32598	
1718	0	32768	32775	
1719	0	32757	32828	
1720	0	32794	32647	
1721	0	32678	32357	
1722	0	32764	32101	
1723	0	32568	31998	
1724	0	32668	31958	
1725	0	32712	32094	
1726	0	32908	32428	
1727	0	33004	32756	
1728	0	32909	32578	
1729	0	32576	32391	
1730	0	32716	32115	
1731	0	33000	32259	
1732	0	32980	32558	
1733	0	32828	32554	
1734	0	32804	32327	
1735	0	32804	32195	
1736	0	32678	32123	
1737	0	32886	32084	
1738	0	32712	32066	
1739	0	32740	32044	
1740	0	32796	32327	
1741	0	32828	32542	
1742	0	32794	32494	
1743	0	32880	32197	
1744	0	32950	32453	
1745	0	32960	32484	
1746	0	32754	32518	
1747	0	32652	32447	
1748	0	32676	32417	
1749	0	32692	32295	
1750	0	32682	32183	
1751	0	32696	32258	
1752	0	32788	32418	
1753	0	32764	32420	
1754	0	32854	32393	
1755	0	32752	32450	
1756	0	32874	32559	
1757	0	32956	32610	
1758	0	32910	32726	
1759	0	32864	32663	
1760	0	32752	32711	
1761	0	32852	32433	
1762	0	32788	32357	
1763	0	32764	32399	
1764	0	32630	32593	
1765	0	32736	32702	
1766	0	32736	32604	
1767	0	32748	32676	
1768	0	32744	32431	
1769	0	32622	32438	
1770	0	32804	32495	
1771	0	32840	32406	
1772	0	32519	32575	
1773	0	32790	32862	
1774	0	32688	32827	
1775	0	32576	32775	
1776	0	32692	32775	
1777	0	32820	32823	
1778	0	32852	32462	
1779	0	32996	32673	
1780	0	32972	32762	
1781	0	32730	32529	
1782	0	32638	32068	
1783	0	32852	31974	
1784	0	32876	32168	
1785	0	32766	32260	
1786	0	32758	32583	
1787	0	32714	32647	
1788	0	32880	32673	
1789	0	32764	32762	
1790	0	32665	32487	
1791	0	32814	32607	
1792	0	33048	32735	
1793	0	33120	32711	
1794	0	33150	32183	
1795	0	33002	32406	
1796	0	32716	32775	
1797	0	32616	32775	
1798	0	32508	32883	
1799	0	32500	32742	
1800	0	32730	32610	
1801	0	32724	32427	
1802	0	32900	32253	
1803	0	33032	32519	
1804	0	33013	32534	
1805	0	33068	32543	
1806	0	33284	32671	
1807	0	33176	32743	
1808	0	33156	32767	
1809	0	32964	32822	
1810	0	32860	32975	
1811	0	32842	32815	
1812	0	32768	32532	
1813	0	32748	32631	
1814	0	32775	32511	
1815	0	32960	32599	
1816	0	32814	32508	
1817	0	32781	32339	
1818	0	32928	32212	
1819	0	32830	32364	
1820	0	32580	32351	
1821	0	32692	32148	
1822	0	32976	32279	
1823	0	32944	32468	
1824	0	32804	32588	
1825	0	32740	32540	
1826	0	32864	32551	
1827	0	32942	32475	
1828	0	32802	32399	
1829	0	32844	32352	
1830	0	33020	32161	
1831	0	33028	32071	
1832	0	32885	32404	
1833	0	32820	32644	
1834	0	32728	32684	
1835	0	32822	32692	
1836	0	32718	32751	
1837	0	32644	32359	
1838	0	32738	32231	
1839	0	32764	32287	
1840	0	32748	32299	
1841	0	32652	32243	
1842	0	32548	32243	
1843	0	32841	32486	
1844	0	32862	32724	
1845	0	32908	32551	
1846	0	32982	32575	
1847	0	32868	32629	
1848	0	32956	32572	
1849	0	32804	32484	
1850	0	32724	32239	
1851	0	32620	32512	
1852	0	32568	32655	
1853	0	32682	32463	
1854	0	32545	32016	
1855	0	32616	32083	
1856	0	32924	32586	
1857	0	32932	32738	
1858	0	32580	32823	
1859	0	32530	32866	
1860	0	32876	32676	
1861	0	33088	32759	
1862	0	32834	32629	
1863	0	32622	32559	
1864	0	32816	32542	
1865	0	33020	32383	
1866	0	32816	32407	
1867	0	32784	32466	
1868	0	32738	32423	
1869	0	32668	32263	
1870	0	32884	32263	
1871	0	32820	32131	
1872	0	32775	32037	
1873	0	32620	32102	
1874	0	32646	32215	
1875	0	32744	32285	
1876	0	32608	32356	
1877	0	32646	31852	
1878	0	32714	31878	
1879	0	32716	32103	
1880	0	32844	32007	
1881	0	32804	32114	
1882	0	32950	32260	
1883	0	32844	32431	
1884	0	32894	32519	
1885	0	32633	32595	
1886	0	32624	32759	
1887	0	32828	32887	
1888	0	32956	32991	
1889	0	32908	32999	
1890	0	32781	32762	
1891	0	32756	32438	
1892	0	32878	32329	
1893	0	32846	32263	
1894	0	32824	32311	
1895	0	32656	32135	
1896	0	32700	32070	
1897	0	32799	32263	
1898	0	32824	32135	
1899	0	32864	32038	
1900	0	32784	32154	
1901	0	32320	32263	
1902	0	32612	32071	
1903	0	32620	32741	
1904	0	32410	32647	
1905	0	32210	32711	
1906	0	32432	32647	
1907	0	32402	32535	
1908	0	32360	32510	
1909	0	32055	32437	
1910	0	31812	32244	
1911	0	31881	32196	
1912	0	32056	32154	
1913	0	32029	32188	
1914	0	32144	32142	
1915	0	32148	31943	
1916	0	32490	32136	
1917	0	33018	32564	
1918	0	32706	32324	
1919	0	33176	32318	
1920	0	33520	32481	
1921	0	33708	32623	
1922	0	33688	32719	
1923	0	33964	32548	
1924	0	34072	32099	
1925	0	33866	32042	
1926	0	33752	32505	
1927	0	33508	32695	
1928	0	33556	32762	
1929	0	34396	32534	
1930	0	34464	32071	
1931	0	34660	31576	
1932	0	34332	32024	
1933	0	34032	32639	
1934	0	34392	32856	
1935	0	35556	33482	
1936	0	35664	33337	
1937	0	35242	32924	
1938	0	35230	32559	
1939	0	34544	32420	
1940	0	33532	32551	
1941	0	32549	32631	
1942	0	31704	32502	
1943	0	31708	32551	
1944	0	31096	32399	
1945	0	30932	32359	
1946	0	31032	32364	
1947	0	31056	32230	
1948	0	31476	32154	
1949	0	31318	32099	
1950	0	31264	32359	
1951	0	31232	32155	
1952	0	31332	32084	
1953	0	31472	32319	
1954	0	31668	32436	
1955	0	31422	32956	
1956	0	31456	33066	
1957	0	31670	32760	
1958	0	31606	32655	
1959	0	31456	32584	
1960	0	31300	32588	
1961	0	31816	32287	
1962	0	32244	32199	
1963	0	31924	31900	
1964	0	31580	31722	
1965	0	32010	32026	
1966	0	31676	32222	
1967	0	32876	32510	
1968	0	33012	32612	
1969	0	32960	32362	
1970	0	33262	32447	
1971	0	33394	32484	
1972	0	33186	32508	
1973	0	33016	32511	
1974	0	33380	32335	
1975	0	33370	32511	
1976	0	33306	32583	
1977	0	33650	32815	
1978	0	33436	32807	
1979	0	33604	32593	
1980	0	33172	32285	
1981	0	33094	32155	
1982	0	33220	32167	
1983	0	33246	32391	
1984	0	33252	32420	
1985	0	32978	32218	
1986	0	33128	32159	
1987	0	32992	32247	
1988	0	32725	32462	
1989	0	32784	32567	
1990	0	32866	32599	
1991	0	33322	32653	
1992	0	33260	32427	
1993	0	33141	32166	
1994	0	32824	32255	
1995	0	32610	32341	
1996	0	32600	32299	
1997	0	32613	32452	
1998	0	32812	32277	
1999	0	32958	32363	
2000	0	32688	32843	
2001	0	32736	32642	
2002	0	32776	32799	
2003	0	32718	31959	
2004	0	32808	32543	
2005	0	33024	32143	
2006	0	32924	32519	
2007	0	33000	32026	
2008	0	32974	32208	
2009	0	33074	32116	
2010	0	32808	31931	
2011	0	32832	32070	
2012	0	32576	32455	
2013	0	32660	32834	
2014	0	32728	32540	
2015	0	32724	32551	
2016	0	32680	31973	
2017	0	32628	32062	
2018	0	33042	32228	
2019	0	32696	32330	
2020	0	32554	32276	
2021	0	32894	32092	
2022	0	32676	32071	
2023	0	32844	32381	
2024	0	32890	32330	
2025	0	32620	32431	
2026	0	32508	32474	
2027	0	32782	32564	
2028	0	33142	32463	
2029	0	32962	32629	
2030	0	32448	32807	
2031	0	32724	32742	
2032	0	32624	32369	
2033	0	32852	32404	
2034	0	33076	32314	
2035	0	32856	32314	
2036	0	32974	32345	
2037	0	32584	32327	
2038	0	32688	32385	
2039	0	33205	32343	
2040	0	33078	32309	
2041	0	32802	32452	
2042	0	32600	32466	
2043	0	32938	32452	
2044	0	32646	32257	
2045	0	32925	32236	
2046	0	32894	32007	
2047	0	32705	32679	
2048	0	32830	32575	
2049	0	32640	33047	
2050	0	32764	32567	
2051	0	32726	32423	
2052	0	32824	32607	
2053	0	32728	32724	
2054	0	32840	32641	
2055	0	32830	32463	
2056	0	32760	32442	
2057	0	32775	31938	
2058	0	32742	31639	
2059	0	32862	32007	
2060	0	32804	32092	
2061	0	32788	32047	
2062	0	32868	32246	
2063	0	32916	32492	
2064	0	32736	32638	
2065	0	32614	32537	
2066	0	32689	32662	
2067	0	32618	32855	
2068	0	32628	32997	
2069	0	32704	32965	
2070	0	32608	32579	
2071	0	33116	32435	
2072	0	33286	32367	
2073	0	32902	32248	
2074	0	32796	31844	
2075	0	32862	31569	
2076	0	33070	32071	
2077	0	32878	32383	
2078	0	32816	32335	
2079	0	32786	32180	
2080	0	32716	32328	
2081	0	32812	32775	
2082	0	32825	32879	
2083	0	32692	32607	
2084	0	32762	32762	
2085	0	32896	32591	
2086	0	32828	32870	
2087	0	32692	32770	
2088	0	32640	32892	
2089	0	32608	32630	
2090	0	32668	32320	
2091	0	32660	32236	
2092	0	32588	32483	
2093	0	32908	32259	
2094	0	32628	32302	
2095	0	32636	32244	
2096	0	32724	32378	
2097	0	32706	32497	
2098	0	32524	32617	
2099	0	33114	32559	
2100	0	32862	32551	
2101	0	32752	32743	
2102	0	33128	32884	
2103	0	32840	32762	
2104	0	32856	32772	
2105	0	32932	32594	
2106	0	32866	32490	
2107	0	32684	32435	
2108	0	32410	31975	
2109	0	32982	32103	
2110	0	33112	32817	
2111	0	33028	32996	
2112	0	32700	32951	
2113	0	33201	32612	
2114	0	32724	32132	
2115	0	32882	32174	
2116	0	32916	32246	
2117	0	32820	32335	
2118	0	32876	32631	
2119	0	32476	32899	
2120	0	32798	32942	
2121	0	32798	32955	
2122	0	32808	32948	
2123	0	32852	33031	
2124	0	32758	32791	
2125	0	32398	32622	
2126	0	32926	32350	
2127	0	32830	32263	
2128	0	32692	31927	
2129	0	32766	31852	
2130	0	32854	31641	
2131	0	32880	32090	
2132	0	32844	32217	
2133	0	32728	31604	
2134	0	32800	32599	
2135	0	32900	32591	
2136	0	32824	32935	
2137	0	32974	32338	
2138	0	32866	32419	
2139	0	33000	32283	
2140	0	32917	32706	
2141	0	32788	32874	
2142	0	32794	32508	
2143	0	32630	32446	
2144	0	32694	32540	
2145	0	32672	32519	
2146	0	32712	32519	
2147	0	32980	32378	
2148	0	32977	32207	
2149	0	32882	32148	
2150	0	32800	32435	
2151	0	32834	32586	
2152	0	32884	32519	
2153	0	32870	32497	
2154	0	32918	32726	
2155	0	32880	32704	
2156	0	32700	33095	
2157	0	32784	32900	
2158	0	32568	32733	
2159	0	32712	32484	
2160	0	32758	31988	
2161	0	32884	31903	
2162	0	32872	32247	
2163	0	32896	32679	
2164	0	32896	32743	
2165	0	32572	32042	
2166	0	32836	31724	
2167	0	32664	31774	
2168	0	32620	31924	
2169	0	32816	31879	
2170	0	33040	31988	
2171	0	32811	32375	
2172	0	32724	32747	
2173	0	33062	32855	
2174	0	32692	32583	
2175	0	32624	32318	
2176	0	32908	32377	
2177	0	32832	32553	
2178	0	32697	32554	
2179	0	32668	31775	
2180	0	32808	32508	
2181	0	32678	32646	
2182	0	32830	32945	
2183	0	32566	32810	
2184	0	32666	32422	
2185	0	32952	32412	
2186	0	32994	32550	
2187	0	32948	32948	
2188	0	32608	32504	
2189	0	32576	32343	
2190	0	33081	32028	
2191	0	32762	31935	
2192	0	33056	31959	
2193	0	33008	32210	
2194	0	32676	32362	
2195	0	32474	32527	
2196	0	32846	32450	
2197	0	32830	32295	
2198	0	32968	32199	
2199	0	33104	32363	
2200	0	33188	32285	
2201	0	32952	32254	
2202	0	32965	32340	
2203	0	32977	32434	
2204	0	32516	32263	
2205	0	32510	32471	
2206	0	32592	32452	
2207	0	32612	32532	
2208	0	32742	32376	
2209	0	32596	32790	
2210	0	32684	32437	
2211	0	32800	32740	
2212	0	32654	32199	
2213	0	32324	32596	
2214	0	32274	32343	
2215	0	32640	32615	
2216	0	32504	31852	
2217	0	32586	32533	
2218	0	32916	32263	
2219	0	32410	32513	
2220	0	32782	32325	
2221	0	33088	32550	
2222	0	33025	32579	
2223	0	32808	32626	
2224	0	32884	32895	
2225	0	32980	32543	
2226	0	32844	32479	
2227	0	32881	32263	
2228	0	32760	32015	
2229	0	32886	32640	
2230	0	32836	32143	
2231	0	32956	32391	
2232	0	32980	32464	
2233	0	32898	32519	
2234	0	32744	32510	
2235	0	32500	32876	
2236	0	32612	32950	
2237	0	32756	32847	
2238	0	32661	32485	
2239	0	33004	32062	
2240	0	32728	31723	
2241	0	32732	31796	
2242	0	32856	32038	
2243	0	32780	31911	
2244	0	32706	31696	
2245	0	32712	31751	
2246	0	32998	32079	
2247	0	33046	32535	
2248	0	32936	32695	
2249	0	33088	32925	
2250	0	33360	32671	
2251	0	33424	32631	
2252	0	33286	32372	
2253	0	33068	32134	
2254	0	33048	32031	
2255	0	32760	32199	
2256	0	32744	32553	
2257	0	32544	32836	
2258	0	32638	32519	
2259	0	32762	32279	
2260	0	32828	32562	
2261	0	32892	32385	
2262	0	32942	32334	
2263	0	32656	32191	
2264	0	32766	32227	
2265	0	32761	31983	
2266	0	32742	31876	
2267	0	32830	32004	
2268	0	32688	32023	
2269	0	32732	31734	
2270	0	32838	31600	
2271	0	32740	31832	
2272	0	32728	32534	
2273	0	32740	32981	
2274	0	32890	33052	
2275	0	32904	32943	
2276	0	33062	32598	
2277	0	32933	32226	
2278	0	32712	32007	
2279	0	32704	32175	
2280	0	32769	32514	
2281	0	33002	32666	
2282	0	32828	32436	
2283	0	32950	32559	
2284	0	32836	32964	
2285	0	32660	33116	
2286	0	32708	32971	
2287	0	32952	32935	
2288	0	32832	32687	
2289	0	32804	32503	
2290	0	32734	32564	
2291	0	32694	32263	
2292	0	32788	32276	
2293	0	32864	32335	
2294	0	32804	32559	
2295	0	32596	31855	
2296	0	32828	32103	
2297	0	32815	32356	
2298	0	32968	32702	
2299	0	32764	32576	
2300	0	32812	32322	
2301	0	32860	32455	
2302	0	32920	32775	
2303	0	32724	32927	
2304	0	32670	32863	
2305	0	32700	32375	
2306	0	32770	32222	
2307	0	32632	32504	
2308	0	32744	32647	
2309	0	32712	32489	
2310	0	32913	32650	
2311	0	33068	32103	
2312	0	32740	32296	
2313	0	32577	32341	
2314	0	32700	32420	
2315	0	32959	32303	
2316	0	32820	31935	
2317	0	32617	32604	
2318	0	32636	32807	
2319	0	32764	33092	
2320	0	32686	32229	
2321	0	32740	32618	
2322	0	32810	32361	
2323	0	32766	32158	
2324	0	32806	32183	
2325	0	32880	31887	
2326	0	32818	31796	
2327	0	32794	32167	
2328	0	32860	32439	
2329	0	32896	32692	
2330	0	32812	32854	
2331	0	32742	32391	
2332	0	32868	31910	
2333	0	32758	32050	
2334	0	32806	32203	
2335	0	32836	32347	
2336	0	32844	32639	
2337	0	32724	32775	
2338	0	32832	32598	
2339	0	32759	32310	
2340	0	32692	32375	
2341	0	32728	32260	
2342	0	32718	32288	
2343	0	32752	32316	
2344	0	32752	32263	
2345	0	32703	32436	
2346	0	32608	32711	
2347	0	32430	32561	
2348	0	32472	32359	
2349	0	32344	32263	
2350	0	32304	32474	
2351	0	32294	32761	
2352	0	32268	32971	
2353	0	32180	32876	
2354	0	31910	32638	
2355	0	31852	32377	
2356	0	32004	32617	
2357	0	32096	32879	
2358	0	32214	32819	
2359	0	32172	32687	
2360	0	32252	32143	
2361	0	32566	31564	
2362	0	32720	31623	
2363	0	33120	32199	
2364	0	33426	32572	
2365	0	33492	32549	
2366	0	33784	32487	
2367	0	33812	32094	
2368	0	33940	32003	
2369	0	33932	32180	
2370	0	33914	32327	
2371	0	33708	32919	
2372	0	33548	33094	
2373	0	34224	32967	
2374	0	34593	32731	
2375	0	34692	32315	
2376	0	34572	32075	
2377	0	34588	32119	
2378	0	34924	32356	
2379	0	35596	32589	
2380	0	35992	32759	
2381	0	35628	32607	
2382	0	35152	32466	
2383	0	34752	32572	
2384	0	33860	32334	
2385	0	32764	32653	
2386	0	32305	32703	
2387	0	31657	32854	
2388	0	31156	32799	
2389	0	31046	32372	
2390	0	31164	31892	
2391	0	31365	31529	
2392	0	31252	31628	
2393	0	31064	32148	
2394	0	30936	32388	
2395	0	30882	32094	
2396	0	30858	32348	
2397	0	30966	32334	
2398	0	31194	32308	
2399	0	31252	32916	
2400	0	31270	32618	
2401	0	31268	32564	
2402	0	31328	32272	
2403	0	31376	32279	
2404	0	31308	32378	
2405	0	31333	32038	
2406	0	31488	32543	
2407	0	31666	32350	
2408	0	31893	32527	
2409	0	31956	32611	
2410	0	32236	32160	
2411	0	32556	32576	
2412	0	32816	32199	
2413	0	32944	32674	
2414	0	33192	32407	
2415	0	33288	32326	
2416	0	33524	32252	
2417	0	33514	32190	
2418	0	33460	32470	
2419	0	33524	32329	
2420	0	33494	32340	
2421	0	33457	32348	
2422	0	33472	32639	
2423	0	33332	32542	
2424	0	33382	32475	
2425	0	33284	32418	
2426	0	33208	32735	
2427	0	33334	32831	
2428	0	33188	32638	
2429	0	33166	32687	
2430	0	33102	32507	
2431	0	33036	32298	
2432	0	32998	32106	
2433	0	32862	32031	
2434	0	32968	32071	
2435	0	32938	32063	
2436	0	32912	32323	
2437	0	32888	32339	
2438	0	32726	32379	
2439	0	32756	32433	
2440	0	32788	32607	
2441	0	32912	32692	
2442	0	32862	32727	
2443	0	32821	32583	
2444	0	32764	32357	
2445	0	32796	32463	
2446	0	32936	32550	
2447	0	32666	32703	
2448	0	32744	32659	
2449	0	32804	32546	
2450	0	32679	32360	
2451	0	32796	32303	
2452	0	32740	32348	
2453	0	32862	32439	
2454	0	32760	32519	
2455	0	32898	32391	
2456	0	32916	32224	
2457	0	32932	32124	
2458	0	32862	32077	
2459	0	32748	32215	
2460	0	32780	31975	
2461	0	32722	31854	
2462	0	32702	32052	
2463	0	32856	32487	
2464	0	32804	32605	
2465	0	32772	32597	
2466	0	32820	32670	
2467	0	32900	32724	
2468	0	32863	32730	
2469	0	32876	32615	
2470	0	32844	32558	
2471	0	32954	32711	
2472	0	32836	32879	
2473	0	32860	32795	
2474	0	32782	32500	
2475	0	32880	32639	
2476	0	32808	32647	
2477	0	32664	32815	
2478	0	32695	32764	
2479	0	32688	32622	
2480	0	32836	32603	
2481	0	32798	32620	
2482	0	32732	32285	
2483	0	32860	32306	
2484	0	32799	32694	
2485	0	32840	32735	
2486	0	32916	32665	
2487	0	32768	32647	
2488	0	32760	32599	
2489	0	32796	32554	
2490	0	32848	32591	
2491	0	32864	32647	
2492	0	32682	32307	
2493	0	32716	32103	
2494	0	32766	32275	
2495	0	32804	32441	
2496	0	32836	32452	
2497	0	32870	32463	
2498	0	32880	32599	
2499	0	32862	32473	
2500	0	32764	32580	
2501	0	32752	32446	
2502	0	32772	32366	
2503	0	32776	32341	
2504	0	32748	32419	
2505	0	32836	32239	
2506	0	32704	32060	
2507	0	32664	31908	
2508	0	32812	31783	
2509	0	32808	32214	
2510	0	32848	32255	
2511	0	32876	32212	
2512	0	32788	32854	
2513	0	32852	32422	
2514	0	32772	32519	
2515	0	32760	32587	
2516	0	32772	32323	
2517	0	32834	32772	
2518	0	32816	32372	
2519	0	32844	32661	
2520	0	32858	32580	
2521	0	32744	32727	
2522	0	32760	32508	
2523	0	32749	32452	
2524	0	32806	32627	
2525	0	32794	32730	
2526	0	32783	32947	
2527	0	32700	32590	
2528	0	32842	32511	
2529	0	32848	32503	
2530	0	32824	32424	
2531	0	32808	32358	
2532	0	32780	32263	
2533	0	32800	32103	
2534	0	32768	31991	
2535	0	32828	31991	
2536	0	32684	31958	
2537	0	32862	32319	
2538	0	32756	32588	
2539	0	32780	32628	
2540	0	32758	32459	
2541	0	32738	32402	
2542	0	32762	32593	
2543	0	32828	32423	
2544	0	32800	32775	
2545	0	32820	32504	
2546	0	32772	32486	
2547	0	32856	32539	
2548	0	32780	32390	
2549	0	32914	32877	
2550	0	32760	32743	
2551	0	32814	32439	
2552	0	32808	32018	
2553	0	32812	32164	
2554	0	32884	32597	
2555	0	32772	32775	
2556	0	32866	32471	
2557	0	32798	31915	
2558	0	32856	31994	
2559	0	32788	32151	
2560	0	32750	32336	
2561	0	32804	32615	
2562	0	32910	32674	
2563	0	32908	32499	
2564	0	32808	32351	
2565	0	32870	32439	
2566	0	32968	32188	
2567	0	32826	32131	
2568	0	32736	32143	
2569	0	32872	32222	
2570	0	32906	32423	
2571	0	32766	32335	
2572	0	32788	32278	
2573	0	32774	32244	
2574	0	32824	32519	
2575	0	32796	32723	
2576	0	32733	32722	
2577	0	32808	32825	
2578	0	32937	32735	
2579	0	32812	32791	
2580	0	32804	32643	
2581	0	32784	32636	
2582	0	32808	32555	
2583	0	32862	32554	
2584	0	32858	32582	
2585	0	32828	32398	
2586	0	32732	32231	
2587	0	32872	32220	
2588	0	32916	32086	
2589	0	32830	31849	
2590	0	32796	31871	
2591	0	32732	32091	
2592	0	32762	32455	
2593	0	32856	32667	
2594	0	32857	32631	
2595	0	32820	32598	
2596	0	32828	32726	
2597	0	32780	32497	
2598	0	32960	32338	
2599	0	32896	32228	
2600	0	32858	31934	
2601	0	32812	31924	
2602	0	32791	32078	
2603	0	32860	32308	
2604	0	32914	32207	
2605	0	32808	32079	
2606	0	32756	32404	
2607	0	32824	32710	
2608	0	32892	32724	
2609	0	32814	32695	
2610	0	32894	32588	
2611	0	32804	32631	
2612	0	32824	32697	
2613	0	32912	32772	
2614	0	32878	32743	
2615	0	32784	32838	
2616	0	32744	32565	
2617	0	32844	32548	
2618	0	32692	32452	
2619	0	32838	32339	
2620	0	32776	32371	
2621	0	32772	32362	
2622	0	32734	32382	
2623	0	32765	32322	
2624	0	32752	32263	
2625	0	32756	32335	
2626	0	32762	32278	
2627	0	32832	32204	
2628	0	32737	32079	
2629	0	32774	32124	
2630	0	32832	31967	
2631	0	32766	32007	
2632	0	32730	31842	
2633	0	32769	31735	
2634	0	32818	31788	
2635	0	32852	32038	
2636	0	32762	32247	
2637	0	32822	32333	
2638	0	32704	32685	
2639	0	32612	32459	
2640	0	32772	32511	
2641	0	32752	32647	
2642	0	32844	32759	
2643	0	32764	32845	
2644	0	32752	32452	
2645	0	32788	32920	
2646	0	32798	32418	
2647	0	32684	32703	
2648	0	32684	32047	
2649	0	32712	31820	
2650	0	32760	31862	
2651	0	32748	32242	
2652	0	32756	32358	
2653	0	32800	32389	
2654	0	32864	32250	
2655	0	32760	32298	
2656	0	32694	32471	
2657	0	32864	32473	
2658	0	32878	32435	
2659	0	32732	32419	
2660	0	32586	32404	
2661	0	32548	32487	
2662	0	32574	32344	
2663	0	32590	32166	
2664	0	32664	31815	
2665	0	32580	31791	
2666	0	32792	31791	
2667	0	32762	31859	
2668	0	32945	32081	
2669	0	32940	32135	
2670	0	32872	32279	
2671	0	32890	32320	
2672	0	32740	32327	
2673	0	32742	32448	
2674	0	32768	32487	
2675	0	32700	32422	
2676	0	32864	32455	
2677	0	32896	32518	
2678	0	32789	32557	
2679	0	32876	32546	
2680	0	32764	32357	
2681	0	32660	32303	
2682	0	32680	32236	
2683	0	32612	32279	
2684	0	32932	32388	
2685	0	32864	32397	
2686	0	32984	32455	
2687	0	32892	32614	
2688	0	32704	32599	
2689	0	32788	32535	
2690	0	32650	32558	
2691	0	32800	32560	
2692	0	32950	32423	
2693	0	32932	32303	
2694	0	32980	32341	
2695	0	32996	32366	
2696	0	33087	32447	
2697	0	33396	32427	
2698	0	33287	32295	
2699	0	33286	32351	
2700	0	32910	32485	
2701	0	32944	32374	
2702	0	32864	32263	
2703	0	32660	32182	
2704	0	32798	32004	
2705	0	32708	31938	
2706	0	32688	32007	
2707	0	32743	32311	
2708	0	32828	32487	
2709	0	32832	32412	
2710	0	32868	32595	
2711	0	32902	32607	
2712	0	32820	32622	
2713	0	32706	32498	
2714	0	32746	32486	
2715	0	32884	32509	
2716	0	32772	32519	
2717	0	32799	32410	
2718	0	32850	32439	
2719	0	32837	32537	
2720	0	32832	32391	
2721	0	32784	32215	
2722	0	32768	31879	
2723	0	32705	31831	
2724	0	32672	32161	
2725	0	32934	32357	
2726	0	32856	32547	
2727	0	32712	32626	
2728	0	32792	32612	
2729	0	32853	32671	
2730	0	32862	32686	
2731	0	32912	32703	
2732	0	32774	32663	
2733	0	32852	32831	
2734	0	32872	32631	
2735	0	32870	32547	
2736	0	32640	32659	
2737	0	32772	32679	
2738	0	32888	32556	
2739	0	32842	32419	
2740	0	32796	32351	
2741	0	32826	32290	
2742	0	32740	32342	
2743	0	32690	32327	
2744	0	32799	32321	
2745	0	32716	32359	
2746	0	32736	32371	
2747	0	32812	32586	
2748	0	32754	32732	
2749	0	32652	32446	
2750	0	32666	32206	
2751	0	32732	32247	
2752	0	32812	32244	
2753	0	32714	32340	
2754	0	32772	32567	
2755	0	32720	32647	
2756	0	32862	32463	
2757	0	32660	32428	
2758	0	32820	32404	
2759	0	32862	32391	
2760	0	32886	32399	
2761	0	32788	32315	
2762	0	32748	32263	
2763	0	32742	32254	
2764	0	32860	32290	
2765	0	32820	32063	
2766	0	32812	31867	
2767	0	32768	32068	
2768	0	32844	31966	
2769	0	32714	32159	
2770	0	32688	32245	
2771	0	32737	32262	
2772	0	32797	32646	
2773	0	32792	32516	
2774	0	32688	32903	
2775	0	32788	32403	
2776	0	32821	32875	
2777	0	32836	32403	
2778	0	32770	32615	
2779	0	32728	32416	
2780	0	32768	32299	
2781	0	32860	32455	
2782	0	32814	31967	
2783	0	32836	32546	
2784	0	32780	32759	
2785	0	32854	32647	
2786	0	32794	32842	
2787	0	32754	32878	
2788	0	32762	32600	
2789	0	32856	32026	
2790	0	32582	31559	
2791	0	32657	31422	
2792	0	32636	31398	
2793	0	32608	31892	
2794	0	32589	32182	
2795	0	32362	32446	
2796	0	32119	32554	
2797	0	32420	32511	
2798	0	32276	32401	
2799	0	32186	32151	
2800	0	32090	32390	
2801	0	31834	32732	
2802	0	31886	32719	
2803	0	31962	32607	
2804	0	32016	32620	
2805	0	31988	32866	
2806	0	31920	32946	
2807	0	31928	32774	
2808	0	32244	32730	
2809	0	32784	32740	
2810	0	33084	32775	
2811	0	33268	32446	
2812	0	33618	32283	
2813	0	33940	31914	
2814	0	33940	31668	
2815	0	34138	32007	
2816	0	34224	32460	
2817	0	34048	32207	
2818	0	34106	32708	
2819	0	34344	32259	
2820	0	34532	32638	
2821	0	35262	32408	
2822	0	35404	32703	
2823	0	35204	32356	
2824	0	35000	32786	
2825	0	35396	32604	
2826	0	36052	32542	
2827	0	36154	32556	
2828	0	35958	32478	
2829	0	35340	32315	
2830	0	34564	32362	
2831	0	33466	32420	
2832	0	32361	32631	
2833	0	31876	32694	
2834	0	31296	32703	
2835	0	30566	32640	
2836	0	30608	32470	
2837	0	30940	32404	
2838	0	31160	32254	
2839	0	31018	32223	
2840	0	30726	32158	
2841	0	30854	32204	
2842	0	30936	32202	
2843	0	31112	32351	
2844	0	31146	32191	
2845	0	30836	32223	
2846	0	30936	32405	
2847	0	30922	32334	
2848	0	30674	32246	
2849	0	30842	32228	
2850	0	30932	32155	
2851	0	31048	32212	
2852	0	31114	32169	
2853	0	31332	32198	
2854	0	31722	32103	
2855	0	31881	32190	
2856	0	32301	32476	
2857	0	32484	32430	
2858	0	32632	32407	
2859	0	33012	32495	
2860	0	33102	32348	
2861	0	33399	32615	
2862	0	33438	32310	
2863	0	33639	32746	
2864	0	33680	32252	
2865	0	33704	32494	
2866	0	33636	32487	
2867	0	33644	32078	
2868	0	33696	32255	
2869	0	33442	32347	
2870	0	33508	32358	
2871	0	33320	32030	
2872	0	33230	32046	
2873	0	33198	32255	
2874	0	33098	32039	
2875	0	33064	31982	
2876	0	33064	31951	
2877	0	33130	32302	
2878	0	33012	32591	
2879	0	32868	32878	
2880	0	32964	32766	
2881	0	32956	32647	
2882	0	32876	32583	
2883	0	32864	32519	
2884	0	32892	32358	
2885	0	33026	32460	
2886	0	32892	32623	
2887	0	32868	32726	
2888	0	32904	32751	
2889	0	32804	32567	
2890	0	32769	32462	
2891	0	32820	32519	
2892	0	32826	32519	
2893	0	32802	32455	
2894	0	32751	32222	
2895	0	32738	32449	
2896	0	32808	32327	
2897	0	32911	32490	
2898	0	32778	32189	
2899	0	32844	32606	
2900	0	32761	32122	
2901	0	32936	32687	
2902	0	32856	32468	
2903	0	32708	32251	
2904	0	32802	32535	
2905	0	32872	32071	
2906	0	32756	32431	
2907	0	32878	32263	
2908	0	32762	32591	
2909	0	32812	32437	
2910	0	32800	32399	
2911	0	32785	32372	
2912	0	32834	32342	
2913	0	32740	32451	
2914	0	32768	32183	
2915	0	32806	32570	
2916	0	32800	32223	
2917	0	32769	32678	
2918	0	32780	32222	
2919	0	32764	32626	
2920	0	32828	32309	
2921	0	32769	32547	
2922	0	32826	32446	
2923	0	32862	32351	
2924	0	32837	32547	
2925	0	32852	32287	
2926	0	32789	32468	
2927	0	32840	32302	
2928	0	32774	32189	
2929	0	32748	32590	
2930	0	32736	32154	
2931	0	32787	32702	
2932	0	32721	32254	
2933	0	32794	32538	
2934	0	32778	32342	
2935	0	32750	32356	
2936	0	32644	32356	
2937	0	32892	32399	
2938	0	32888	32495	
2939	0	32877	32319	
2940	0	32855	32603	
2941	0	32844	32222	
2942	0	32858	32638	
2943	0	32774	32254	
2944	0	32780	32668	
2945	0	32812	32231	
2946	0	32828	32551	
2947	0	32828	32140	
2948	0	32788	32644	
2949	0	32766	32246	
2950	0	32750	32684	
2951	0	32752	32255	
2952	0	32791	32711	
2953	0	32844	32665	
2954	0	32828	32740	
2955	0	32844	32462	
2956	0	32774	32939	
2957	0	32814	32663	
2958	0	32808	32519	
2959	0	32804	32036	
2960	0	32792	31572	
2961	0	32873	31548	
2962	0	32906	31567	
2963	0	32910	31623	
2964	0	32800	31835	
2965	0	32736	31890	
2966	0	32741	31907	
2967	0	32696	32103	
2968	0	32759	32287	
2969	0	32772	32559	
2970	0	32746	32510	
2971	0	32814	32508	
2972	0	32792	32484	
2973	0	32812	32404	
2974	0	32808	32326	
2975	0	32792	32310	
2976	0	32816	32175	
2977	0	32812	32204	
2978	0	32776	32171	
2979	0	32748	32262	
2980	0	32854	32295	
2981	0	32860	32706	
2982	0	32768	32775	
2983	0	32740	32889	
2984	0	32804	32589	
2985	0	32836	32506	
2986	0	32832	32279	
2987	0	32878	32156	
2988	0	32896	32110	
2989	0	32760	32074	
2990	0	32772	32029	
2991	0	32828	32319	
2992	0	32836	32325	
2993	0	32816	32345	
2994	0	32764	32295	
2995	0	32644	32287	
2996	0	32832	32175	
2997	0	33032	32162	
2998	0	32876	32340	
2999	0	32814	32259	
3000	0	32753	32309	
3001	0	32822	32492	
3002	0	32836	32686	
3003	0	32812	32593	
3004	0	32756	32836	
3005	0	32892	32692	
3006	0	32758	32343	
3007	0	32860	32365	
3008	0	32824	32190	
3009	0	32869	32186	
3010	0	32855	32300	
3011	0	32932	32341	
3012	0	32836	32471	
3013	0	32792	32599	
3014	0	32760	32658	
3015	0	32784	32714	
3016	0	32800	32558	
3017	0	32788	32327	
3018	0	32836	32217	
3019	0	32734	32098	
3020	0	32848	32205	
3021	0	32808	32390	
3022	0	32702	32647	
3023	0	32764	32583	
3024	0	32852	32540	
3025	0	32742	32391	
3026	0	32830	32615	
3027	0	32696	32580	
3028	0	32800	32645	
3029	0	32883	32406	
3030	0	32784	32135	
3031	0	32750	32047	
3032	0	32814	32293	
3033	0	32864	32599	
3034	0	32728	32679	
3035	0	32844	32487	
3036	0	32892	32454	
3037	0	32844	32423	
3038	0	32918	32439	
3039	0	32857	32343	
3040	0	32858	32631	
3041	0	32906	32647	
3042	0	32784	32710	
3043	0	32832	32494	
3044	0	32828	32351	
3045	0	32788	32284	
3046	0	32888	32190	
3047	0	32868	32263	
3048	0	32934	32391	
3049	0	32896	32215	
3050	0	32954	32311	
3051	0	32790	32380	
3052	0	32900	32263	
3053	0	32862	32305	
3054	0	32814	32319	
3055	0	32744	32247	
3056	0	32740	32189	
3057	0	32740	32106	
3058	0	32744	32212	
3059	0	32758	32318	
3060	0	32762	32276	
3061	0	32748	32313	
3062	0	32804	32182	
3063	0	32760	32212	
3064	0	32832	32263	
3065	0	32800	32351	
3066	0	32757	32391	
3067	0	32684	32619	
3068	0	32775	32628	
3069	0	32790	32743	
3070	0	32802	32695	
3071	0	32780	32568	
3072	0	32832	32635	
3073	0	32768	32699	
3074	0	32820	32678	
3075	0	32794	32719	
3076	0	32705	32515	
3077	0	32766	32263	
3078	0	32744	32188	
3079	0	32758	32232	
3080	0	32672	32634	
3081	0	32816	32729	
3082	0	32764	32433	
3083	0	32682	32295	
3084	0	32716	32263	
3085	0	32812	32343	
3086	0	32704	32535	
3087	0	32608	32679	
3088	0	32712	32576	
3089	0	32816	32380	
3090	0	32836	32278	
3091	0	32840	32316	
3092	0	32847	32550	
3093	0	32813	32711	
3094	0	32834	32463	
3095	0	32660	32260	
3096	0	32688	32090	
3097	0	32830	32341	
3098	0	32820	32294	
3099	0	32808	32135	
3100	0	32948	32397	
3101	0	32844	32863	
3102	0	32716	32347	
3103	0	32680	32598	
3104	0	32752	32491	
3105	0	32736	32286	
3106	0	32836	32844	
3107	0	32758	32535	
3108	0	32590	32677	
3109	0	32498	32702	
3110	0	32534	32311	
3111	0	32552	32666	
3112	0	32700	32391	
3113	0	32700	32159	
3114	0	32516	31910	
3115	0	32700	31437	
3116	0	32636	31924	
3117	0	32880	32002	
3118	0	32910	32177	
3119	0	32830	32822	
3120	0	32940	32500	
3121	0	32784	32638	
3122	0	32896	32482	
3123	0	32790	32766	
3124	0	32696	32867	
3125	0	32929	32807	
3126	0	32888	32122	
3127	0	32740	31751	
3128	0	32956	32131	
3129	0	32904	32340	
3130	0	32834	32187	
3131	0	32680	32240	
3132	0	32614	32391	
3133	0	32860	32693	
3134	0	33086	32967	
3135	0	33084	32591	
3136	0	32909	32388	
3137	0	32844	32431	
3138	0	32676	32343	
3139	0	32592	32374	
3140	0	32732	32583	
3141	0	32676	32724	
3142	0	32876	32764	
3143	0	32934	32484	
3144	0	32978	32342	
3145	0	33084	32316	
3146	0	33224	32286	
3147	0	33484	32333	
3148	0	33362	32325	
3149	0	33136	32471	
3150	0	33042	32447	
3151	0	32938	32199	
3152	0	32946	32123	
3153	0	32808	32208	
3154	0	32846	32222	
3155	0	32660	32098	
3156	0	32662	32158	
3157	0	32622	32167	
3158	0	32612	32174	
3159	0	32844	32407	
3160	0	32820	32571	
3161	0	32860	32633	
3162	0	32862	32798	
3163	0	32774	32815	
3164	0	32692	32498	
3165	0	32704	32366	
3166	0	32768	32194	
3167	0	32814	32455	
3168	0	32886	32367	
3169	0	32888	32630	
3170	0	32926	32451	
3171	0	32765	32434	
3172	0	32766	32110	
3173	0	32738	32596	
3174	0	32754	32127	
3175	0	32700	32263	
3176	0	32826	32441	
3177	0	32905	32191	
3178	0	32644	32775	
3179	0	32896	32355	
3180	0	33028	32691	
3181	0	32714	32143	
3182	0	32722	32583	
3183	0	32796	32228	
3184	0	32846	32474	
3185	0	32790	32447	
3186	0	32730	32497	
3187	0	32785	32469	
3188	0	32980	32340	
3189	0	32932	32276	
3190	0	32784	32599	
3191	0	32672	32511	
3192	0	32626	32300	
3193	0	32840	32507	
3194	0	32676	32213	
3195	0	32774	32519	
3196	0	32668	32574	
3197	0	32676	32455	
3198	0	32854	32566	
3199	0	32964	32628	
3200	0	32780	32663	
3201	0	32718	32639	
3202	0	32704	32583	
3203	0	32596	32575	
3204	0	32686	32642	
3205	0	32960	32711	
3206	0	32930	32661	
3207	0	32740	32578	
3208	0	32576	32399	
3209	0	32740	32486	
3210	0	32940	32519	
3211	0	32714	32412	
3212	0	32810	32366	
3213	0	32868	32455	
3214	0	32684	32438	
3215	0	32810	32450	
3216	0	32696	32452	
3217	0	32742	32487	
3218	0	32860	32459	
3219	0	32805	32501	
3220	0	32676	32212	
3221	0	32712	32070	
3222	0	32868	32209	
3223	0	32904	32678	
3224	0	32872	32839	
3225	0	32832	32391	
3226	0	32794	32247	
3227	0	32542	32127	
3228	0	32700	32113	
3229	0	32980	32135	
3230	0	32816	31868	
3231	0	32902	31679	
3232	0	32826	31847	
3233	0	32765	32148	
3234	0	32596	32263	
3235	0	32930	32702	
3236	0	32872	32815	
3237	0	32834	32488	
3238	0	32844	32615	
3239	0	32700	32141	
3240	0	32684	32682	
3241	0	32852	32396	
3242	0	32710	32124	
3243	0	32542	32206	
3244	0	32244	32252	
3245	0	32276	32319	
3246	0	32196	32846	
3247	0	32132	32472	
3248	0	32180	32796	
3249	0	32020	32302	
3250	0	31912	32681	
3251	0	31864	32375	
3252	0	31816	32407	
3253	0	31964	32641	
3254	0	32168	32239	
3255	0	31964	32725	
3256	0	32056	32263	
3257	0	32128	32687	
3258	0	32496	32166	
3259	0	32853	32388	
3260	0	33336	32354	
3261	0	33636	32375	
3262	0	33952	32510	
3263	0	34274	32263	
3264	0	34174	32455	
3265	0	34244	32251	
3266	0	34250	32515	
3267	0	33880	32042	
3268	0	33973	32591	
3269	0	34496	32206	
3270	0	34692	32556	
3271	0	35022	32303	
3272	0	34938	32657	
3273	0	34700	32364	
3274	0	34830	32391	
3275	0	35428	32662	
3276	0	35980	32381	
3277	0	35898	32574	
3278	0	35212	32637	
3279	0	34438	32551	
3280	0	33596	32404	
3281	0	32886	32439	
3282	0	32096	32607	
3283	0	31524	32623	
3284	0	31114	32597	
3285	0	30934	32455	
3286	0	30984	32660	
3287	0	31216	32194	
3288	0	31248	32569	
3289	0	31004	32159	
3290	0	31018	32580	
3291	0	31022	32314	
3292	0	31006	32325	
3293	0	31278	32428	
3294	0	31344	32435	
3295	0	31320	32260	
3296	0	31344	32091	
3297	0	31141	32191	
3298	0	31302	32510	
3299	0	31185	32592	
3300	0	31078	32375	
3301	0	31238	32287	
3302	0	31218	32257	
3303	0	31644	32252	
3304	0	31872	32708	
3305	0	31846	32391	
3306	0	32152	31983	
3307	0	32504	32099	
3308	0	32772	32183	
3309	0	33068	32287	
3310	0	33136	32238	
3311	0	33364	32355	
3312	0	33438	32493	
3313	0	33466	32612	
3314	0	33376	32751	
3315	0	33542	32815	
3316	0	33626	32684	
3317	0	33578	32674	
3318	0	33380	32567	
3319	0	33380	32334	
3320	0	33434	32148	
3321	0	33422	32103	
3322	0	33134	32052	
3323	0	33176	31950	
3324	0	33134	32042	
3325	0	33208	32106	
3326	0	33078	32311	
3327	0	33028	32359	
3328	0	32926	32383	
3329	0	33040	32639	
3330	0	32912	32742	
3331	0	32848	32647	
3332	0	32941	32727	
3333	0	32764	32484	
3334	0	32904	32535	
3335	0	32911	32677	
3336	0	32724	32671	
3337	0	32878	32612	
3338	0	32926	32750	
3339	0	32776	32661	
3340	0	32964	32604	
3341	0	32842	32552	
3342	0	32908	32563	
3343	0	32816	32509	
3344	0	32708	32391	
3345	0	32964	32483	
3346	0	32684	32301	
3347	0	32810	32383	
3348	0	32708	32168	
3349	0	32808	32188	
3350	0	32844	32203	
3351	0	32685	31983	
3352	0	32688	32042	
3353	0	32782	32263	
3354	0	32821	32459	
3355	0	32983	32491	
3356	0	32956	32668	
3357	0	32836	32686	
3358	0	32766	32582	
3359	0	32904	32687	
3360	0	32706	32543	
3361	0	32736	32535	
3362	0	32876	32360	
3363	0	32860	32250	
3364	0	32744	32177	
3365	0	32772	32374	
3366	0	32800	32231	
3367	0	32584	32172	
3368	0	32900	32284	
3369	0	32796	32519	
3370	0	32768	32745	
3371	0	32736	32595	
3372	0	32814	32737	
3373	0	32973	32803	
3374	0	32830	32707	
3375	0	32848	32631	
3376	0	32920	32660	
3377	0	32798	32839	
3378	0	32870	32979	
3379	0	32888	32933	
3380	0	32830	32807	
3381	0	32626	32621	
3382	0	32766	32559	
3383	0	32862	32310	
3384	0	32782	32223	
3385	0	32892	32151	
3386	0	32804	31962	
3387	0	32646	31870	
3388	0	32704	32421	
3389	0	32732	32528	
3390	0	32748	32436	
3391	0	32856	32407	
3392	0	33144	32134	
3393	0	32814	32215	
3394	0	32736	32372	
3395	0	32668	32463	
3396	0	33000	32380	
3397	0	32768	32327	
3398	0	32714	32431	
3399	0	32734	32675	
3400	0	32786	32923	
3401	0	32740	33068	
3402	0	32704	32670	
3403	0	32680	33108	
3404	0	32900	32754	
3405	0	32870	32823	
3406	0	32706	32327	
3407	0	33070	32143	
3408	0	32704	31803	
3409	0	32680	31768	
3410	0	32698	32007	
3411	0	32724	31890	
3412	0	32860	32391	
3413	0	33048	31926	
3414	0	32784	32121	
3415	0	32868	32542	
3416	0	32812	32298	
3417	0	32708	32314	
3418	0	32702	32375	
3419	0	32816	32591	
3420	0	32810	32497	
3421	0	32593	32490	
3422	0	32741	32433	
3423	0	32930	32474	
3424	0	32834	32501	
3425	0	32774	32478	
3426	0	32812	32556	
3427	0	32780	32339	
3428	0	32732	32327	
3429	0	32852	32326	
3430	0	32796	32390	
3431	0	32940	32470	
3432	0	32924	32615	
3433	0	32808	32639	
3434	0	32790	32359	
3435	0	32690	32227	
3436	0	32790	32156	
3437	0	32824	32337	
3438	0	32604	32487	
3439	0	32780	32596	
3440	0	32860	32647	
3441	0	32946	32519	
3442	0	32804	32330	
3443	0	32832	32261	
3444	0	32776	32175	
3445	0	32724	32295	
3446	0	32874	32298	
3447	0	32828	32355	
3448	0	32772	32359	
3449	0	32926	32295	
3450	0	32820	32186	
3451	0	32849	31988	
3452	0	32900	32138	
3453	0	32916	32231	
3454	0	32775	32166	
3455	0	32708	32071	
3456	0	32692	32094	
3457	0	32753	32183	
3458	0	32828	32203	
3459	0	32672	32255	
3460	0	32876	32356	
3461	0	32836	32276	
3462	0	32860	32187	
3463	0	32980	32498	
3464	0	32855	32567	
3465	0	32838	32618	
3466	0	33016	32944	
3467	0	32814	32391	
3468	0	32702	32367	
3469	0	32718	32207	
3470	0	32840	32230	
3471	0	32720	32255	
3472	0	32844	32229	
3473	0	32692	31959	
3474	0	32758	32055	
3475	0	32704	32397	
3476	0	32828	32514	
3477	0	32944	32437	
3478	0	32726	32766	
3479	0	32858	32391	
3480	0	33004	32708	
3481	0	32962	32689	
3482	0	32800	32511	
3483	0	32660	32339	
3484	0	32696	32126	
3485	0	32810	32263	
3486	0	32780	32538	
3487	0	32730	32619	
3488	0	32852	32588	
3489	0	33028	32547	
3490	0	32864	32517	
3491	0	32838	32511	
3492	0	32900	32359	
3493	0	32812	32366	
3494	0	32878	32388	
3495	0	32934	32383	
3496	0	32964	32287	
3497	0	32764	32099	
3498	0	32832	32371	
3499	0	32708	32599	
3500	0	32798	32644	
3501	0	32848	32447	
3502	0	32772	32332	
3503	0	32792	32298	
3504	0	32772	32159	
3505	0	32774	32325	
3506	0	32848	32499	
3507	0	32853	32559	
3508	0	32800	32567	
3509	0	32776	32620	
3510	0	32752	32611	
3511	0	32778	32687	
3512	0	32814	32583	
3513	0	32856	32635	
3514	0	32824	32631	
3515	0	32752	32379	
3516	0	32700	32310	
3517	0	32742	32195	
3518	0	32748	32243	
3519	0	32864	32431	
3520	0	32804	32518	
3521	0	32808	32607	
3522	0	32700	32610	
3523	0	32836	32631	
3524	0	32808	32431	
3525	0	32748	32303	
3526	0	32668	32230	
3527	0	32708	32262	
3528	0	32800	32170	
3529	0	32772	32181	
3530	0	32775	32250	
3531	0	32788	32411	
3532	0	32760	32346	
3533	0	32720	32442	
3534	0	32780	32539	
3535	0	32804	32610	
3536	0	32758	32323	
3537	0	32864	32263	
3538	0	32812	32362	
3539	0	32820	32391	
3540	0	32809	32207	
3541	0	32725	32175	
3542	0	32790	32263	
3543	0	32830	32261	
3544	0	32748	32406	
3545	0	32822	32490	
3546	0	32708	32547	
3547	0	32749	32666	
3548	0	32716	32479	
3549	0	32760	32372	
3550	0	32737	32311	
3551	0	32775	32231	
3552	0	32992	32660	
3553	0	32788	32332	
3554	0	32680	32603	
3555	0	32824	32367	
3556	0	32736	32631	
3557	0	32698	32355	
3558	0	32796	32719	
3559	0	32860	32346	
3560	0	32804	32463	
3561	0	32762	32183	
3562	0	32588	32117	
3563	0	32548	32575	
3564	0	32660	32135	
3565	0	32656	32430	
3566	0	32734	32535	
3567	0	32698	32558	
3568	0	32693	32263	
3569	0	32720	31772	
3570	0	32796	32556	
3571	0	32796	32173	
3572	0	32804	31618	
3573	0	32862	31466	
3574	0	32912	31871	
3575	0	32817	32263	
3576	0	32801	32711	
3577	0	32860	32775	
3578	0	32798	32869	
3579	0	32822	32935	
3580	0	32910	32676	
3581	0	32900	32356	
3582	0	32980	32186	
3583	0	32996	32263	
3584	0	32860	32667	
3585	0	32756	32775	
3586	0	32628	32763	
3587	0	32616	32444	
3588	0	32834	32487	
3589	0	32960	32454	
3590	0	32868	32382	
3591	0	32762	32287	
3592	0	32761	32263	
3593	0	32720	32313	
3594	0	32702	32444	
3595	0	32672	32647	
3596	0	32862	32348	
3597	0	32928	31925	
3598	0	33044	31878	
3599	0	33156	32382	
3600	0	33198	32749	
3601	0	33236	32714	
3602	0	33198	32672	
3603	0	33063	32482	
3604	0	32938	32495	
3605	0	32898	32758	
3606	0	32784	32316	
3607	0	32784	32555	
3608	0	32686	32188	
3609	0	32761	32499	
3610	0	32770	32214	
3611	0	32693	32732	
3612	0	32824	32444	
3613	0	32844	32350	
3614	0	32712	32273	
3615	0	32818	32367	
3616	0	32788	32478	
3617	0	32778	32502	
3618	0	32740	32628	
3619	0	32686	32683	
3620	0	32796	32735	
3621	0	32918	32773	
3622	0	32892	32774	
3623	0	32892	32606	
3624	0	32966	32623	
3625	0	32820	32726	
3626	0	32768	32708	
3627	0	32800	32519	
3628	0	32830	32758	
3629	0	32746	32830	
3630	0	32884	32758	
3631	0	32784	32655	
3632	0	32894	32606	
3633	0	32844	32500	
3634	0	32694	32527	
3635	0	32740	32625	
3636	0	32740	32643	
3637	0	32712	32616	
3638	0	32772	32674	
3639	0	32670	32638	
3640	0	32764	32724	
3641	0	32968	32767	
3642	0	32956	32727	
3643	0	32926	32759	
3644	0	32852	32663	
3645	0	32716	32543	
3646	0	32612	32069	
3647	0	32724	32335	
3648	0	32712	32287	
3649	0	32868	32084	
3650	0	32881	32354	
3651	0	32812	32061	
3652	0	32744	32455	
3653	0	32782	32427	
3654	0	32736	32442	
3655	0	32700	32608	
3656	0	32764	32213	
3657	0	32786	32596	
3658	0	32850	32519	
3659	0	32888	32373	
3660	0	32800	32754	
3661	0	32673	32498	
3662	0	32756	32604	
3663	0	32772	32303	
3664	0	32758	32031	
3665	0	32760	32351	
3666	0	32692	31999	
3667	0	32724	32452	
3668	0	32756	32528	
3669	0	32830	32325	
3670	0	32870	32404	
3671	0	32844	32547	
3672	0	32786	32583	
3673	0	32717	32313	
3674	0	32780	32004	
3675	0	32804	31992	
3676	0	32848	31974	
3677	0	32846	32085	
3678	0	32832	32218	
3679	0	32784	32383	
3680	0	32832	32487	
3681	0	32744	32580	
3682	0	32752	32722	
3683	0	32830	32647	
3684	0	32710	32263	
3685	0	32714	32791	
3686	0	32766	32191	
3687	0	32880	32367	
3688	0	32836	32343	
3689	0	32767	32079	
3690	0	32844	32021	
3691	0	32702	32108	
3692	0	32812	32359	
3693	0	32766	32375	
3694	0	32646	32478	
3695	0	32738	32342	
3696	0	32633	32279	
3697	0	32636	32742	
3698	0	32460	32863	
3699	0	32316	32375	
3700	0	32172	32423	
3701	0	32156	32702	
3702	0	32244	32347	
3703	0	31960	32172	
3704	0	31796	32611	
3705	0	31948	31880	
3706	0	31936	31822	
3707	0	32024	32483	
3708	0	32100	32631	
3709	0	32158	32231	
3710	0	32296	32263	
3711	0	32858	32589	
3712	0	33182	32703	
3713	0	33460	32307	
3714	0	33810	32198	
3715	0	34078	32424	
3716	0	33906	32311	
3717	0	33848	32219	
3718	0	33820	32151	
3719	0	33701	32212	
3720	0	33872	32191	
3721	0	33940	32496	
3722	0	34260	32622	
3723	0	34466	32668	
3724	0	34580	32676	
3725	0	34520	32614	
3726	0	34368	32341	
3727	0	34748	32085	
3728	0	35072	31960	
3729	0	35438	32143	
3730	0	35206	32310	
3731	0	35156	32586	
3732	0	34656	32580	
3733	0	33498	32398	
3734	0	32609	32535	
3735	0	32060	32804	
3736	0	31590	32807	
3737	0	31360	32631	
3738	0	31276	32647	
3739	0	31364	32580	
3740	0	31584	32513	
3741	0	31552	32519	
3742	0	31592	32526	
3743	0	31409	32086	
3744	0	31328	32213	
3745	0	31092	32579	
3746	0	31086	32663	
3747	0	31134	32364	
3748	0	31118	32651	
3749	0	31070	32313	
3750	0	31124	32160	
3751	0	31140	32503	
3752	0	31208	32173	
3753	0	31140	31751	
3754	0	31246	32205	
3755	0	31368	32343	
3756	0	31724	32381	
3757	0	31934	32391	
3758	0	32192	32244	
3759	0	32354	32206	
3760	0	32552	32274	
3761	0	32952	32165	
3762	0	33188	32218	
3763	0	33324	32239	
3764	0	33364	32263	
3765	0	33452	32246	
3766	0	33420	32167	
3767	0	33428	32030	
3768	0	33620	31743	
3769	0	33634	31867	
3770	0	33480	32071	
3771	0	33454	32296	
3772	0	33384	32693	
3773	0	33274	32791	
3774	0	33280	32795	
3775	0	33228	32647	
3776	0	33156	32574	
3777	0	33128	32638	
3778	0	33042	32752	
3779	0	33016	32775	
3780	0	33100	32615	
3781	0	33046	32548	
3782	0	32948	32503	
3783	0	32820	32356	
3784	0	32876	32359	
3785	0	32908	32318	
3786	0	33028	32327	
3787	0	32832	32363	
3788	0	32782	32199	
3789	0	32877	31932	
3790	0	32830	31911	
3791	0	32913	32234	
3792	0	32798	32518	
3793	0	32788	32671	
3794	0	32828	32615	
3795	0	32830	32615	
3796	0	32828	32823	
3797	0	32750	32853	
3798	0	32725	32669	
3799	0	32980	32655	
3800	0	32935	32746	
3801	0	32792	32558	
3802	0	32713	32452	
3803	0	32772	32338	
3804	0	32794	32120	
3805	0	32892	32005	
3806	0	32804	32284	
3807	0	32836	32562	
3808	0	32790	32724	
3809	0	32650	32455	
3810	0	32884	32423	
3811	0	32794	32282	
3812	0	32904	32519	
3813	0	32781	32518	
3814	0	32740	32847	
3815	0	32796	32750	
3816	0	32720	32705	
3817	0	32775	32579	
3818	0	32910	32455	
3819	0	32736	32175	
3820	0	32772	31916	
3821	0	32780	31989	
3822	0	32840	32191	
3823	0	32840	32163	
3824	0	32884	32116	
3825	0	32832	32303	
3826	0	32692	32559	
3827	0	32761	32615	
3828	0	32828	32711	
3829	0	32772	32599	
3830	0	32760	32484	
3831	0	32808	32397	
3832	0	32860	32299	
3833	0	32778	32038	
3834	0	32797	32154	
3835	0	32864	32390	
3836	0	32925	32472	
3837	0	32880	32647	
3838	0	32744	32576	
3839	0	32794	32695	
3840	0	32744	32479	
3841	0	32748	32414	
3842	0	32708	32322	
3843	0	32794	32350	
3844	0	32876	32455	
3845	0	32876	32830	
3846	0	32794	32391	
3847	0	32794	32415	
3848	0	32808	32655	
3849	0	32858	32199	
3850	0	32878	32548	
3851	0	32750	32335	
3852	0	32868	32454	
3853	0	32764	32247	
3854	0	32806	32446	
3855	0	32836	32166	
3856	0	32732	32287	
3857	0	32764	31898	
3858	0	32788	32485	
3859	0	32808	32257	
3860	0	32836	32215	
3861	0	32780	32559	
3862	0	32838	32148	
3863	0	32816	32687	
3864	0	32796	32501	
3865	0	32876	32415	
3866	0	32892	32421	
3867	0	32683	32375	
3868	0	32672	32407	
3869	0	32782	32304	
3870	0	32886	32316	
3871	0	32784	32263	
3872	0	32830	32244	
3873	0	32751	32164	
3874	0	32704	32238	
3875	0	32766	32469	
3876	0	32700	32647	
3877	0	32752	32732	
3878	0	32800	32482	
3879	0	32802	32499	
3880	0	32911	32358	
3881	0	32844	32436	
3882	0	32768	32222	
3883	0	32804	32262	
3884	0	32796	32159	
3885	0	32824	32236	
3886	0	32804	32287	
3887	0	32748	32263	
3888	0	32740	32231	
3889	0	32907	32188	
3890	0	32864	32210	
3891	0	32824	32383	
3892	0	32726	32481	
3893	0	32820	32519	
3894	0	32948	32513	
3895	0	32853	32187	
3896	0	32666	32558	
3897	0	32834	32329	
3898	0	32860	32539	
3899	0	32804	32506	
3900	0	32724	32188	
3901	0	32814	32698	
3902	0	32804	32222	
3903	0	32738	32705	
3904	0	32842	32373	
3905	0	32888	32086	
3906	0	32840	31979	
3907	0	32805	32071	
3908	0	32886	32174	
3909	0	32812	32239	
3910	0	32724	32197	
3911	0	32770	32135	
3912	0	32884	32244	
3913	0	32746	32230	
3914	0	32898	32283	
3915	0	32836	32359	
3916	0	32760	32318	
3917	0	32804	32340	
3918	0	32852	32327	
3919	0	32880	32475	
3920	0	32828	32539	
3921	0	32786	32630	
3922	0	32964	32628	
3923	0	32956	32535	
3924	0	32752	32519	
3925	0	32788	32613	
3926	0	32741	32669	
3927	0	32676	32671	
3928	0	32720	32551	
3929	0	32802	32410	
3930	0	32784	32375	
3931	0	32884	32263	
3932	0	32780	32391	
3933	0	32768	32183	
3934	0	32892	32182	
3935	0	32920	32307	
3936	0	32812	32164	
3937	0	32762	31854	
3938	0	32760	32020	
3939	0	32804	32383	
3940	0	32796	32438	
3941	0	32860	32327	
3942	0	32889	32484	
3943	0	32866	32564	
3944	0	32972	32511	
3945	0	32872	32367	
3946	0	32810	32317	
3947	0	32782	32652	
3948	0	32736	32743	
3949	0	32843	32770	
3950	0	32836	32627	
3951	0	32820	32374	
3952	0	32856	32479	
3953	0	32868	32467	
3954	0	32972	32588	
3955	0	32816	32498	
3956	0	32716	32407	
3957	0	32708	31998	
3958	0	32824	31963	
3959	0	32738	32135	
3960	0	32836	32327	
3961	0	32820	32458	
3962	0	32760	32456	
3963	0	32818	32539	
3964	0	32888	32539	
3965	0	32849	32775	
3966	0	32850	32686	
3967	0	32830	32622	
3968	0	32788	32487	
3969	0	32804	32511	
3970	0	32784	32431	
3971	0	32816	32286	
3972	0	32770	32263	
3973	0	32714	32319	
3974	0	32796	32302	
3975	0	32850	32103	
3976	0	32680	32087	
3977	0	32724	32060	
3978	0	32806	32430	
3979	0	32758	32421	
3980	0	32705	32251	
3981	0	32804	32434	
3982	0	32742	32364	
3983	0	32796	32358	
3984	0	32712	32191	
3985	0	32759	32164	
3986	0	32864	32230	
3987	0	32758	32374	
3988	0	32721	32516	
3989	0	32762	32479	
3990	0	32878	32718	
3991	0	32878	32622	
3992	0	32760	32646	
3993	0	32752	32348	
3994	0	32788	32626	
3995	0	32740	32455	
3996	0	32788	32236	
3997	0	32726	32500	
3998	0	32848	32175	
3999	0	32740	32131	
4000	0	32686	32253	
4001	0	32740	32200	
4002	0	32722	32428	
4003	0	32636	32399	
4004	0	32616	32367	
4005	0	32616	32474	
4006	0	32462	32244	
4007	0	32604	32415	
4008	0	32661	32332	
4009	0	32664	32551	
4010	0	32660	32794	
4011	0	32706	32726	
4012	0	32752	32539	
4013	0	32858	32354	
4014	0	32816	32285	
4015	0	32961	32183	
4016	0	32952	32111	
4017	0	32892	32087	
4018	0	32780	32083	
4019	0	32774	32188	
4020	0	32815	32409	
4021	0	32822	32287	
4022	0	32840	32191	
4023	0	32764	32170	
4024	0	32956	32135	
4025	0	32872	32293	
4026	0	32832	32407	
4027	0	32740	32540	
4028	0	32716	32847	
4029	0	32692	32870	
4030	0	32780	32767	
4031	0	32852	32666	
4032	0	32956	32528	
4033	0	32956	32425	
4034	0	32868	32093	
4035	0	32730	32180	
4036	0	32742	32407	
4037	0	32837	31999	
4038	0	32852	32431	
4039	0	32900	32511	
4040	0	33032	32238	
4041	0	33000	32485	
4042	0	33240	32574	
4043	0	33368	32444	
4044	0	33180	32572	
4045	0	32960	32421	
4046	0	33002	32766	
4047	0	32966	32304	
4048	0	32804	32519	
4049	0	32746	32444	
4050	0	32672	32589	
4051	0	32812	32086	
4052	0	32732	32303	
4053	0	32704	32143	
4054	0	32834	32687	
4055	0	32848	32260	
4056	0	32836	32616	
4057	0	32806	32262	
4058	0	32850	32738	
4059	0	32780	32431	
4060	0	32806	32570	
4061	0	32774	32455	
4062	0	32856	32127	
4063	0	32776	32567	
4064	0	32856	32460	
4065	0	32852	32079	
4066	0	32863	32215	
4067	0	32948	32071	
4068	0	32828	32229	
4069	0	32816	32391	
4070	0	32804	32647	
4071	0	32864	32707	
4072	0	32784	32566	
4073	0	32766	32286	
4074	0	32765	32322	
4075	0	32848	32299	
4076	0	32892	32241	
4077	0	32872	32263	
4078	0	32672	32231	
4079	0	32744	32438	
4080	0	32700	32727	
4081	0	32712	32655	
4082	0	32786	32710	
4083	0	32808	32689	
4084	0	32788	32663	
4085	0	32766	32662	
4086	0	32748	32557	
4087	0	32840	32644	
4088	0	32720	32519	
4089	0	32708	32535	
4090	0	32904	32379	
4091	0	32830	32178	
4092	0	32720	32191	
4093	0	32814	32305	
4094	0	32756	32391	
4095	0	32775	32411	
4096	0	32740	32396	
4097	0	32756	32619	
4098	0	32798	32660	
4099	0	32788	32551	
4100	0	32756	32470	
4101	0	32680	32244	
4102	0	32736	32191	
4103	0	32748	32198	
4104	0	32716	32233	
4105	0	32744	32301	
4106	0	32788	32439	
4107	0	32816	32488	
4108	0	32782	32644	
4109	0	32752	32615	
4110	0	32752	32762	
4111	0	32788	32737	
4112	0	32772	32675	
4113	0	32765	32497	
4114	0	32832	32293	
4115	0	32796	32071	
4116	0	32798	32062	
4117	0	32725	32073	
4118	0	32795	32227	
4119	0	32788	32322	
4120	0	32854	32367	
4121	0	32900	32421	
4122	0	32784	32295	
4123	0	32740	32282	
4124	0	32774	32343	
4125	0	32748	32516	
4126	0	32794	32487	
4127	0	32792	32411	
4128	0	32796	32502	
4129	0	32752	32327	
4130	0	32809	32055	
4131	0	32832	32017	
4132	0	32814	32014	
4133	0	32864	31890	
4134	0	32846	32410	
4135	0	32744	32655	
4136	0	32708	32543	
4137	0	32716	32755	
4138	0	32582	32799	
4139	0	32528	32930	
4140	0	32440	32775	
4141	0	32340	32737	
4142	0	32263	32486	
4143	0	32196	32514	
4144	0	32260	32570	
4145	0	32156	32380	
4146	0	31916	32406	
4147	0	31898	32363	
4148	0	31958	32322	
4149	0	31958	32263	
4150	0	32113	32335	
4151	0	32008	32354	
4152	0	32018	32402	
4153	0	32224	32660	
4154	0	32830	32293	
4155	0	33134	32480	
4156	0	33352	32263	
4157	0	33700	32151	
4158	0	34016	32461	
4159	0	34136	32321	
4160	0	34216	32149	
4161	0	34272	32615	
4162	0	34292	32261	
4163	0	34264	32327	
4164	0	34158	32377	
4165	0	34392	32230	
4166	0	34746	32692	
4167	0	35032	32414	
4168	0	34962	32302	
4169	0	34704	32663	
4170	0	34952	32332	
4171	0	35348	32642	
4172	0	35644	32198	
4173	0	35564	32419	
4174	0	35014	32463	
4175	0	34440	32775	
4176	0	33122	32558	
4177	0	32268	32348	
4178	0	31918	32427	
4179	0	31302	32474	
4180	0	30727	32511	
4181	0	30740	32739	
4182	0	31164	32542	
4183	0	31366	32219	
4184	0	31204	31879	
4185	0	31010	31591	
4186	0	31040	32447	
4187	0	31124	32335	
4188	0	31125	32570	
4189	0	31156	32891	
4190	0	31138	32519	
4191	0	30944	32231	
4192	0	31008	32211	
4193	0	30888	31953	
4194	0	30816	32498	
4195	0	30940	32566	
4196	0	31056	32259	
4197	0	31246	32546	
4198	0	31430	32685	
4199	0	31780	32693	
4200	0	32024	32646	
4201	0	32276	32744	
4202	0	32556	32572	
4203	0	32848	32375	
4204	0	32944	32174	
4205	0	33188	32153	
4206	0	33366	32510	
4207	0	33508	32775	
4208	0	33664	32687	
4209	0	33624	32639	
4210	0	33616	32615	
4211	0	33532	32708	
4212	0	33548	32551	
4213	0	33580	32527	
4214	0	33452	32671	
4215	0	33432	32743	
4216	0	33308	32669	
4217	0	33318	32502	
4218	0	33180	32316	
4219	0	33220	32246	
4220	0	33072	32247	
4221	0	33056	32548	
4222	0	33000	32215	
4223	0	32988	32679	
4224	0	32992	32223	
4225	0	32968	32577	
4226	0	32900	32182	
4227	0	32932	32679	
4228	0	32897	32172	
4229	0	32866	32607	
4230	0	32903	32255	
4231	0	32940	32254	
4232	0	32864	32238	
4233	0	32842	32190	
4234	0	32786	32166	
4235	0	32824	32239	
4236	0	32844	32462	
4237	0	32886	32431	
4238	0	32849	32411	
4239	0	32832	32603	
4240	0	32811	32583	
4241	0	32804	32635	
4242	0	32872	32623	
4243	0	32840	32702	
4244	0	32757	32567	
4245	0	32785	32670	
4246	0	32750	32695	
4247	0	32740	32634	
4248	0	32808	32599	
4249	0	32798	32479	
4250	0	32767	32226	
4251	0	32832	32252	
4252	0	32833	32162	
4253	0	32721	32196	
4254	0	32820	31989	
4255	0	32768	31879	
4256	0	32853	31995	
4257	0	32784	32196	
4258	0	32767	32402	
4259	0	32796	32442	
4260	0	32830	32184	
4261	0	32872	32172	
4262	0	32821	32289	
4263	0	32820	32370	
4264	0	32838	32169	
4265	0	32774	32340	
4266	0	32838	32427	
4267	0	32816	32224	
4268	0	32900	32310	
4269	0	32788	32410	
4270	0	32823	32391	
4271	0	32820	32599	
4272	0	32732	32671	
4273	0	32824	32582	
4274	0	32804	32623	
4275	0	32874	32670	
4276	0	32762	32723	
4277	0	32840	32766	
4278	0	32814	32693	
4279	0	32845	32644	
4280	0	32838	32748	
4281	0	32732	32647	
4282	0	32798	32724	
4283	0	32820	32463	
4284	0	32740	32052	
4285	0	32782	32607	
4286	0	32844	32287	
4287	0	32782	32439	
4288	0	32744	32345	
4289	0	32848	32168	
4290	0	32860	32255	
4291	0	32788	32324	
4292	0	32775	32686	
4293	0	32804	32455	
4294	0	32772	32719	
4295	0	32704	32608	
4296	0	32700	32647	
4297	0	32775	32220	
4298	0	32775	32068	
4299	0	32756	32031	
4300	0	32710	32006	
4301	0	32792	32377	
4302	0	32766	32508	
4303	0	32832	32706	
4304	0	32768	32828	
4305	0	32776	32743	
4306	0	32698	32678	
4307	0	32728	32583	
4308	0	32730	32396	
4309	0	32712	32259	
4310	0	32736	32459	
4311	0	32775	32542	
4312	0	32828	32254	
4313	0	32854	32213	
4314	0	32753	32065	
4315	0	32760	32059	
4316	0	32873	32245	
4317	0	32792	32484	
4318	0	32804	32687	
4319	0	32798	32852	
4320	0	32812	32735	
4321	0	32820	32639	
4322	0	32852	32574	
4323	0	32846	32358	
4324	0	32836	32327	
4325	0	32808	32172	
4326	0	32761	32210	
4327	0	32740	32594	
4328	0	32784	32850	
4329	0	32844	32610	
4330	0	32796	32308	
4331	0	32734	32230	
4332	0	32686	32255	
4333	0	32752	32503	
4334	0	32750	32566	
4335	0	32848	32429	
4336	0	32800	32319	
4337	0	32796	32239	
4338	0	32804	32378	
4339	0	32887	32614	
4340	0	32936	32602	
4341	0	32988	32539	
4342	0	32832	32532	
4343	0	32812	32628	
4344	0	32824	32519	
4345	0	32802	32222	
4346	0	32834	32164	
4347	0	32872	32334	
4348	0	32808	32487	
4349	0	32808	32482	
4350	0	32790	32446	
4351	0	32756	32263	
4352	0	32804	32047	
4353	0	32856	32057	
4354	0	32864	32252	
4355	0	32836	32382	
4356	0	32830	32110	
4357	0	32872	31948	
4358	0	32852	32145	
4359	0	32858	32335	
4360	0	32948	32226	
4361	0	32732	32140	
4362	0	32788	32263	
4363	0	32820	32671	
4364	0	32706	32869	
4365	0	32901	32772	
4366	0	32882	32327	
4367	0	32732	32231	
4368	0	32759	32643	
4369	0	32830	32670	
4370	0	32826	32391	
4371	0	32824	32362	
4372	0	32824	32455	
4373	0	32866	32499	
4374	0	32809	32516	
4375	0	32784	32546	
4376	0	32740	32263	
4377	0	32878	32210	
4378	0	32780	32317	
4379	0	32993	32470	
4380	0	32888	32323	
4381	0	32872	32503	
4382	0	32840	32495	
4383	0	32880	32623	
4384	0	32836	32772	
4385	0	32728	32639	
4386	0	32788	32429	
4387	0	32824	32239	
4388	0	32804	32183	
4389	0	32844	32130	
4390	0	32892	32071	
4391	0	32876	31991	
4392	0	32852	32263	
4393	0	32808	32276	
4394	0	32887	32223	
4395	0	32845	32231	
4396	0	32831	32436	
4397	0	32864	32561	
4398	0	32824	32711	
4399	0	32780	32479	
4400	0	32784	32422	
4401	0	32832	32573	
4402	0	32817	32657	
4403	0	32822	32255	
4404	0	32756	32556	
4405	0	32855	32273	
4406	0	32881	32309	
4407	0	32860	32575	
4408	0	32728	32759	
4409	0	32818	32572	
4410	0	32762	32263	
4411	0	32799	32007	
4412	0	32783	31722	
4413	0	32780	31595	
4414	0	32756	31996	
4415	0	32686	32398	
4416	0	32814	32607	
4417	0	32776	32727	
4418	0	32750	32690	
4419	0	32721	32775	
4420	0	32756	32506	
4421	0	32708	32487	
4422	0	32696	32668	
4423	0	32772	32636	
4424	0	32814	32814	
4425	0	32809	32799	
4426	0	32773	32711	
4427	0	32817	32706	
4428	0	32716	32519	
4429	0	32680	32559	
4430	0	32720	32593	
4431	0	32814	32583	
4432	0	32732	32296	
4433	0	32862	32326	
4434	0	32786	32319	
4435	0	32804	32318	
4436	0	32852	32111	
4437	0	32918	32407	
4438	0	32836	32734	
4439	0	32704	32259	
4440	0	32660	32550	
4441	0	32836	32460	
4442	0	32800	32223	
4443	0	32732	32549	
4444	0	32744	32195	
4445	0	32800	32091	
4446	0	32884	32631	
4447	0	32870	32294	
4448	0	32784	32775	
4449	0	32682	32263	
4450	0	32836	32455	
4451	0	32836	32362	
4452	0	32750	32198	
4453	0	32698	32286	
4454	0	32770	32143	
4455	0	32760	32594	
4456	0	32858	32222	
4457	0	32830	32522	
4458	0	32812	32223	
4459	0	32808	32262	
4460	0	32772	32391	
4461	0	32680	32514	
4462	0	32828	32725	
4463	0	32856	32810	
4464	0	32764	32622	
4465	0	32798	32558	
4466	0	32746	32471	
4467	0	32896	32540	
4468	0	32884	32483	
4469	0	32828	32364	
4470	0	32808	32535	
4471	0	32810	32636	
4472	0	32818	32704	
4473	0	32692	32622	
4474	0	32708	32661	
4475	0	32680	32496	
4476	0	32508	32337	
4477	0	32466	32527	
4478	0	32583	32647	
4479	0	32654	32559	
4480	0	32632	32751	
4481	0	32692	32759	
4482	0	32808	32696	
4483	0	32834	32635	
4484	0	32858	32455	
4485	0	32872	32372	
4486	0	32872	32363	
4487	0	32956	32220	
4488	0	32892	32134	
4489	0	32824	32143	
4490	0	32722	32303	
4491	0	32848	32318	
4492	0	32808	32287	
4493	0	32872	32172	
4494	0	32780	32074	
4495	0	32800	32183	
4496	0	32644	32318	
4497	0	32668	32254	
4498	0	32681	32360	
4499	0	32844	32444	
4500	0	32930	32386	
4501	0	32948	32279	
4502	0	32976	32235	
4503	0	32852	32367	
4504	0	32760	32455	
4505	0	32604	32432	
4506	0	32824	32399	
4507	0	32796	32020	
4508	0	32828	31956	
4509	0	32870	32060	
4510	0	33126	32002	
4511	0	33332	31957	
4512	0	33292	32102	
4513	0	33228	32503	
4514	0	33126	32681	
4515	0	33040	32728	
4516	0	32864	32659	
4517	0	32760	32564	
4518	0	32742	32530	
4519	0	32680	32391	
4520	0	32720	32087	
4521	0	32714	32007	
4522	0	32740	32067	
4523	0	32716	32234	
4524	0	32852	32391	
4525	0	32887	32519	
4526	0	32828	32819	
4527	0	32912	32775	
4528	0	32868	32628	
4529	0	32894	32694	
4530	0	32876	32695	
4531	0	32929	32743	
4532	0	32924	32814	
4533	0	32896	32606	
4534	0	32974	32492	
4535	0	33020	32449	
4536	0	32936	32372	
4537	0	32845	32343	
4538	0	32778	32335	
4539	0	32772	32207	
4540	0	32633	32564	
4541	0	32692	32407	
4542	0	32857	32644	
4543	0	32836	32775	
4544	0	32854	32752	
4545	0	32728	32734	
4546	0	32752	32615	
4547	0	32686	32468	
4548	0	32676	32325	
4549	0	32868	32447	
4550	0	32804	32381	
4551	0	32794	32299	
4552	0	32820	32309	
4553	0	32718	32287	
4554	0	32716	32327	
4555	0	32720	32415	
4556	0	32632	32346	
4557	0	32708	32422	
4558	0	32748	32519	
4559	0	32728	32423	
4560	0	32708	32648	
4561	0	32660	32597	
4562	0	32752	32543	
4563	0	32765	32584	
4564	0	32802	32671	
4565	0	32796	32737	
4566	0	32760	32463	
4567	0	32756	32295	
4568	0	32780	32311	
4569	0	32848	32215	
4570	0	32812	32253	
4571	0	32752	32356	
4572	0	32744	32482	
4573	0	32700	32556	
4574	0	32852	32555	
4575	0	32904	32262	
4576	0	32748	32609	
4577	0	32692	32794	
4578	0	32738	32775	
4579	0	32736	32406	
4580	0	32748	32242	
4581	0	32784	32225	
4582	0	32764	31861	
4583	0	32772	31879	
4584	0	32750	32247	
4585	0	32784	32294	
4586	0	32969	32236	
4587	0	32866	32167	
4588	0	32794	32175	
4589	0	32754	32263	
4590	0	32756	32450	
4591	0	32800	32456	
4592	0	32948	32345	
4593	0	32760	32295	
4594	0	32768	32255	
4595	0	32708	32622	
4596	0	32866	31991	
4597	0	32868	32299	
4598	0	32775	31967	
4599	0	32788	32367	
4600	0	32812	32215	
4601	0	32796	32479	
4602	0	32828	32711	
4603	0	32700	32362	
4604	0	32756	32676	
4605	0	32716	32604	
4606	0	32628	32577	
4607	0	32582	32687	
4608	0	32506	32727	
4609	0	32360	32640	
4610	0	32228	32655	
4611	0	32184	32631	
4612	0	32236	32689	
4613	0	32198	32729	
4614	0	32128	32767	
4615	0	31800	32602	
4616	0	31772	32517	
4617	0	31817	32383	
4618	0	31900	32260	
4619	0	32092	32244	
4620	0	31956	32213	
4621	0	31940	32198	
4622	0	32182	32311	
4623	0	32616	32244	
4624	0	33160	32559	
4625	0	33336	32500	
4626	0	33640	32543	
4627	0	33860	32705	
4628	0	33996	32665	
4629	0	34424	32678	
4630	0	34166	32503	
4631	0	34130	32392	
4632	0	34232	32287	
4633	0	34444	32222	
4634	0	34692	32171	
4635	0	35272	32199	
4636	0	35598	32294	
4637	0	35392	32455	
4638	0	34826	32684	
4639	0	35204	32696	
4640	0	35872	32748	
4641	0	36276	32592	
4642	0	36129	32455	
4643	0	35436	32439	
4644	0	34598	32263	
4645	0	33316	32135	
4646	0	32392	32330	
4647	0	31909	32786	
4648	0	31177	32799	
4649	0	30558	32628	
4650	0	30476	32295	
4651	0	30778	32050	
4652	0	31110	32052	
4653	0	31080	32055	
4654	0	30754	32242	
4655	0	30848	32228	
4656	0	31076	32342	
4657	0	31284	32538	
4658	0	31148	32633	
4659	0	31070	32539	
4660	0	30988	32484	
4661	0	30884	32399	
4662	0	30772	32140	
4663	0	30692	32039	
4664	0	30832	32087	
4665	0	30908	32436	
4666	0	31078	32775	
4667	0	31158	32622	
4668	0	31654	32399	
4669	0	31824	31903	
4670	0	32072	32182	
4671	0	32348	32435	
4672	0	32596	32635	
4673	0	32774	32613	
4674	0	33076	32550	
4675	0	33300	32541	
4676	0	33466	32429	
4677	0	33612	32375	
4678	0	33732	32286	
4679	0	33824	32311	
4680	0	33596	32251	
4681	0	33662	32348	
4682	0	33634	32391	
4683	0	33544	32414	
4684	0	33460	32519	
4685	0	33456	32423	
4686	0	33456	32284	
4687	0	33316	32668	
4688	0	33095	32292	
4689	0	33170	32473	
4690	0	33039	32523	
4691	0	32994	32263	
4692	0	33068	32628	
4693	0	32976	32263	
4694	0	32932	32231	
4695	0	33000	32588	
4696	0	32902	32092	
4697	0	32932	32355	
4698	0	32902	32148	
4699	0	32960	32062	
4700	0	32900	32719	
4701	0	32844	32338	
4702	0	32672	32412	
4703	0	32775	32686	
4704	0	32932	32083	
4705	0	32972	32311	
4706	0	32800	32391	
4707	0	32840	32839	
4708	0	32862	32431	
4709	0	32864	32795	
4710	0	32881	32620	
4711	0	32764	32697	
4712	0	32876	32604	
4713	0	32960	32254	
4714	0	32801	32378	
4715	0	32768	31937	
4716	0	32666	32231	
4717	0	32804	32241	
4718	0	32788	32127	
4719	0	32824	32743	
4720	0	32746	32434	
4721	0	32769	32657	
4722	0	32812	32647	
4723	0	32837	32346	
4724	0	32706	32637	
4725	0	32824	32226	
4726	0	32784	32414	
4727	0	32828	32194	
4728	0	32932	32122	
4729	0	32848	32326	
4730	0	32800	32132	
4731	0	32738	32372	
4732	0	32844	32452	
4733	0	32866	32606	
4734	0	32724	32612	
4735	0	32816	32414	
4736	0	32832	32357	
4737	0	32780	32391	
4738	0	32766	32239	
4739	0	32765	32197	
4740	0	32884	32135	
4741	0	32864	32028	
4742	0	32788	32151	
4743	0	32782	32252	
4744	0	32820	32206	
4745	0	32774	32079	
4746	0	32812	32229	
4747	0	32830	32287	
4748	0	32721	32422	
4749	0	32792	32538	
4750	0	32820	32799	
4751	0	32788	32672	
4752	0	32772	32542	
4753	0	32697	32500	
4754	0	32696	32622	
4755	0	32708	32657	
4756	0	32837	32751	
4757	0	32801	32603	
4758	0	32840	32388	
4759	0	32764	32359	
4760	0	32817	32355	
4761	0	32881	32319	
4762	0	32886	32255	
4763	0	32772	32219	
4764	0	32836	32311	
4765	0	32834	32199	
4766	0	32774	32225	
4767	0	32804	32519	
4768	0	32838	32679	
4769	0	32785	32810	
4770	0	32880	32674	
4771	0	32896	32631	
4772	0	32868	32596	
4773	0	32874	32658	
4774	0	32734	32618	
4775	0	32852	32518	
4776	0	32756	32518	
4777	0	32836	32479	
4778	0	32772	32315	
4779	0	32868	32287	
4780	0	32764	32148	
4781	0	32760	32263	
4782	0	32684	32420	
4783	0	32746	32541	
4784	0	32752	32302	
4785	0	32812	32511	
4786	0	32688	32686	
4787	0	32846	32692	
4788	0	32775	32619	
4789	0	32752	32486	
4790	0	32782	32338	
4791	0	32775	32199	
4792	0	32752	32007	
4793	0	32814	32227	
4794	0	32814	32447	
4795	0	32856	32501	
4796	0	32868	32308	
4797	0	32852	32327	
4798	0	32820	32277	
4799	0	32787	32414	
4800	0	32844	32618	
4801	0	32804	32607	
4802	0	32753	32615	
4803	0	32796	32775	
4804	0	32760	32599	
4805	0	32812	32239	
4806	0	32796	32127	
4807	0	32757	32058	
4808	0	32785	32353	
4809	0	32760	32223	
4810	0	32820	32436	
4811	0	32870	32471	
4812	0	32784	32494	
4813	0	32816	32482	
4814	0	32772	32534	
4815	0	32772	32683	
4816	0	32768	32514	
4817	0	32760	32449	
4818	0	32980	32453	
4819	0	32824	32391	
4820	0	32850	32455	
4821	0	32765	32390	
4822	0	32796	32436	
4823	0	32799	32647	
4824	0	32794	32711	
4825	0	32815	32550	
4826	0	32870	32534	
4827	0	32812	32579	
4828	0	32776	32740	
4829	0	32824	32647	
4830	0	32840	32610	
4831	0	32804	32510	
4832	0	32804	32299	
4833	0	32928	32276	
4834	0	32796	32366	
4835	0	32728	32243	
4836	0	32744	32259	
4837	0	32896	32218	
4838	0	32886	32127	
4839	0	32856	31932	
4840	0	32804	32044	
4841	0	32724	32255	
4842	0	32836	32539	
4843	0	32884	32687	
4844	0	32832	32644	
4845	0	32816	32566	
4846	0	32874	32479	
4847	0	32960	32160	
4848	0	32884	32161	
4849	0	32784	32231	
4850	0	32710	32239	
4851	0	32820	32263	
4852	0	32908	32262	
4853	0	32908	32352	
4854	0	32788	32308	
4855	0	32778	32309	
4856	0	32760	32214	
4857	0	32798	32362	
4858	0	32908	32398	
4859	0	32858	32439	
4860	0	32824	32519	
4861	0	32866	32823	
4862	0	32878	32860	
4863	0	32838	32773	
4864	0	32860	32759	
4865	0	32900	32583	
4866	0	32864	32427	
4867	0	32928	32427	
4868	0	32890	32351	
4869	0	32840	32148	
4870	0	32860	32099	
4871	0	32788	31909	
4872	0	32768	31851	
4873	0	32684	31953	
4874	0	32802	32018	
4875	0	32799	32276	
4876	0	32714	32231	
4877	0	32788	32413	
4878	0	32807	32510	
4879	0	32756	32345	
4880	0	32835	32247	
4881	0	32775	32455	
4882	0	32858	32498	
4883	0	32706	32439	
4884	0	32642	32455	
4885	0	32690	32391	
4886	0	32756	32325	
4887	0	32743	32295	
4888	0	32864	32455	
4889	0	32781	32348	
4890	0	32774	32613	
4891	0	32732	32623	
4892	0	32740	32599	
4893	0	32765	32453	
4894	0	32830	32443	
4895	0	32772	32263	
4896	0	32784	32071	
4897	0	32908	32226	
4898	0	32740	32287	
4899	0	32830	32354	
4900	0	32672	32123	
4901	0	32816	32107	
4902	0	32720	32202	
4903	0	32732	32495	
4904	0	32725	32416	
4905	0	32788	32575	
4906	0	32780	32572	
4907	0	32828	32775	
4908	0	32750	32664	
4909	0	32800	32548	
4910	0	32680	32431	
4911	0	32792	32322	
4912	0	32844	32261	
4913	0	32810	32286	
4914	0	32772	32263	
4915	0	32836	32116	
4916	0	32804	32294	
4917	0	32804	32455	
4918	0	32796	32434	
4919	0	32780	32383	
4920	0	32844	32575	
4921	0	32834	32645	
4922	0	32760	32674	
4923	0	32709	32647	
4924	0	32712	32737	
4925	0	32812	32655	
4926	0	32784	32608	
4927	0	32798	32615	
4928	0	32800	32667	
4929	0	32796	32756	
4930	0	32788	32806	
4931	0	32847	32690	
4932	0	32836	32633	
4933	0	32756	32350	
4934	0	32680	32295	
4935	0	32588	32135	
4936	0	32596	32122	
4937	0	32548	32186	
4938	0	32624	32143	
4939	0	32704	32130	
4940	0	32664	32183	
4941	0	32706	32183	
4942	0	32757	32038	
4943	0	32837	32124	
4944	0	32876	32263	
4945	0	32762	32335	
4946	0	32840	32327	
4947	0	32910	32251	
4948	0	32836	32182	
4949	0	32790	32116	
4950	0	32804	32111	
4951	0	32836	32152	
4952	0	32952	32114	
4953	0	32920	32231	
4954	0	32932	32454	
4955	0	32742	32263	
4956	0	32733	32308	
4957	0	32638	32551	
4958	0	32670	32604	
4959	0	32871	32540	
4960	0	32920	32420	
4961	0	33000	32414	
4962	0	32882	32335	
4963	0	32732	32405	
4964	0	32652	32476	
4965	0	32608	32391	
4966	0	32692	32558	
4967	0	32814	32460	
4968	0	32880	32519	
4969	0	32893	32473	
4970	0	32976	32199	
4971	0	33192	32207	
4972	0	33360	32342	
4973	0	33338	32327	
4974	0	33236	32161	
4975	0	33104	32367	
4976	0	32832	32309	
4977	0	32832	32170	
4978	0	32836	32188	
4979	0	32752	32439	
4980	0	32720	32624	
4981	0	32678	32822	
4982	0	32866	32555	
4983	0	32912	32476	
4984	0	32912	32391	
4985	0	32846	32215	
4986	0	32775	32166	
4987	0	32760	32287	
4988	0	32736	32305	
4989	0	32783	32404	
4990	0	32864	32612	
4991	0	32890	32638	
4992	0	32732	32673	
4993	0	32880	32550	
4994	0	32896	32503	
4995	0	32866	32424	
4996	0	32758	32562	
4997	0	32852	32628	
4998	0	32816	32496	
4999	0	32774	32318	
5000	0	32764	32159	
5001	0	32772	32292	
5002	0	32804	32363	
5003	0	32812	32322	
5004	0	32838	32407	
5005	0	32720	32515	
5006	0	32744	32590	
5007	0	32766	32391	
5008	0	32724	32263	
5009	0	32684	32414	
5010	0	32676	32671	
5011	0	32836	32262	
5012	0	32806	32158	
5013	0	32828	32238	
5014	0	32796	32359	
5015	0	32788	32402	
5016	0	32816	32298	
5017	0	32748	32199	
5018	0	32644	32244	
5019	0	32702	32512	
5020	0	32769	32375	
5021	0	32810	32199	
5022	0	32774	32577	
5023	0	32848	32193	
5024	0	32711	32548	
5025	0	32748	32229	
5026	0	32764	32711	
5027	0	32744	32620	
5028	0	32689	32199	
5029	0	32742	32587	
5030	0	32690	32287	
5031	0	32711	32550	
5032	0	32774	32474	
5033	0	32904	32638	
5034	0	32775	32657	
5035	0	32742	32401	
5036	0	32802	32550	
5037	0	32701	31962	
5038	0	32775	32076	
5039	0	32804	32094	
5040	0	32748	32155	
5041	0	32761	32191	
5042	0	32775	32295	
5043	0	32808	32542	
5044	0	32740	32517	
5045	0	32762	32495	
5046	0	32756	32459	
5047	0	32812	32231	
5048	0	32860	32285	
5049	0	32902	32407	
5050	0	32762	32185	
5051	0	32920	32156	
5052	0	32840	32092	
5053	0	32708	32322	
5054	0	32650	32364	
5055	0	32724	32322	
5056	0	32756	32543	
5057	0	32852	32519	
5058	0	32834	32454	
5059	0	32824	32350	
5060	0	32790	32365	
5061	0	32776	32482	
5062	0	32810	32494	
5063	0	32774	32242	
5064	0	32768	32254	
5065	0	32708	32174	
5066	0	32684	32299	
5067	0	32600	32380	
5068	0	32496	32332	
5069	0	32462	32101	
5070	0	32404	32339	
5071	0	32132	32399	
5072	0	32196	32439	
5073	0	32232	32903	
5074	0	32184	32899	
5075	0	31888	32775	
5076	0	31908	32534	
5077	0	31898	32261	
5078	0	32004	32135	
5079	0	32156	31993	
5080	0	32160	31951	
5081	0	32040	31916	
5082	0	32420	32122	
5083	0	32566	32263	
5084	0	32944	32615	
5085	0	33274	32447	
5086	0	33372	32383	
5087	0	33780	32623	
5088	0	33912	32514	
5089	0	33826	32468	
5090	0	34154	32573	
5091	0	34165	32623	
5092	0	33936	32761	
5093	0	33797	32587	
5094	0	34242	32419	
5095	0	34584	32391	
5096	0	35236	32294	
5097	0	35200	32367	
5098	0	34844	32355	
5099	0	34742	32300	
5100	0	35438	32426	
5101	0	35798	32508	
5102	0	35942	32559	
5103	0	35609	32602	
5104	0	34864	32667	
5105	0	33984	32579	
5106	0	33108	32491	
5107	0	32164	32322	
5108	0	31646	32358	
5109	0	31218	32510	
5110	0	30776	32545	
5111	0	30946	32614	
5112	0	31076	32473	
5113	0	30994	32598	
5114	0	31197	32469	
5115	0	31110	32334	
5116	0	31040	32431	
5117	0	30904	32111	
5118	0	31148	32302	
5119	0	31456	32005	
5120	0	31424	32546	
5121	0	31152	32239	
5122	0	31022	32582	
5123	0	31184	32463	
5124	0	30926	32404	
5125	0	30940	32716	
5126	0	31200	32354	
5127	0	31404	32506	
5128	0	31488	32147	
5129	0	31756	32007	
5130	0	31908	32356	
5131	0	32168	32199	
5132	0	32364	32619	
5133	0	32692	32428	
5134	0	33012	32278	
5135	0	33132	32676	
5136	0	33284	32511	
5137	0	33404	32508	
5138	0	33484	32492	
5139	0	33572	32261	
5140	0	33540	32727	
5141	0	33584	32206	
5142	0	33512	32464	
5143	0	33522	32218	
5144	0	33572	32007	
5145	0	33342	32561	
5146	0	33340	32477	
5147	0	33320	32259	
5148	0	33240	32510	
5149	0	33118	32407	
5150	0	33009	32287	
5151	0	33112	32630	
5152	0	33062	32398	
5153	0	33029	32539	
5154	0	32964	32724	
5155	0	32928	32055	
5156	0	32892	32454	
5157	0	32788	32417	
5158	0	32714	32415	
5159	0	32976	32836	
5160	0	32884	32391	
5161	0	32900	32695	
5162	0	32801	32283	
5163	0	32868	32319	
5164	0	32820	32199	
5165	0	32900	32295	
5166	0	32820	32258	
5167	0	32889	32246	
5168	0	32790	32175	
5169	0	32768	32099	
5170	0	32852	32067	
5171	0	32790	32420	
5172	0	32775	32726	
5173	0	32812	32695	
5174	0	32870	32569	
5175	0	32842	32360	
5176	0	32834	32263	
5177	0	32780	32150	
5178	0	32824	32287	
5179	0	32716	32476	
5180	0	32776	32487	
5181	0	32792	32485	
5182	0	32810	32468	
5183	0	32832	32412	
5184	0	32878	32404	
5185	0	32868	32363	
5186	0	32808	32542	
5187	0	32856	32743	
5188	0	32789	32735	
5189	0	32752	32519	
5190	0	32616	32263	
5191	0	32828	32230	
5192	0	32826	32033	
5193	0	32732	32102	
5194	0	32640	32304	
5195	0	32788	32511	
5196	0	32952	32867	
5197	0	32828	32734	
5198	0	32740	32542	
5199	0	32596	32259	
5200	0	32822	32241	
5201	0	32953	32375	
5202	0	32806	32668	
5203	0	32840	32487	
5204	0	32785	32358	
5205	0	32892	32375	
5206	0	32796	32491	
5207	0	32724	32660	
5208	0	32868	32543	
5209	0	32741	32212	
5210	0	32790	32285	
5211	0	32860	32416	
5212	0	32825	32356	
5213	0	32766	32335	
5214	0	32758	32035	
5215	0	32769	32574	
5216	0	32872	32260	
5217	0	32788	32482	
5218	0	32770	32239	
5219	0	32736	32634	
5220	0	32798	32437	
5221	0	32864	32375	
5222	0	32812	32558	
5223	0	32776	32308	
5224	0	32756	32303	
5225	0	32814	32018	
5226	0	32792	31964	
5227	0	32700	32180	
5228	0	32772	32434	
5229	0	32918	32639	
5230	0	32836	32662	
5231	0	32794	32490	
5232	0	32860	32775	
5233	0	32836	32600	
5234	0	32788	32165	
5235	0	32904	32047	
5236	0	32860	32369	
5237	0	32798	32347	
5238	0	32684	32372	
5239	0	32826	32486	
5240	0	32806	32343	
5241	0	32878	32218	
5242	0	32772	32311	
5243	0	32890	32322	
5244	0	32828	32359	
5245	0	32732	32542	
5246	0	32604	32565	
5247	0	32842	32478	
5248	0	32798	32468	
5249	0	32644	32408	
5250	0	32870	32420	
5251	0	32864	32310	
5252	0	32720	32555	
5253	0	32698	32771	
5254	0	32836	32647	
5255	0	32860	32362	
5256	0	32840	32455	
5257	0	32670	32446	
5258	0	32804	32307	
5259	0	32860	31943	
5260	0	32912	31950	
5261	0	32840	32263	
5262	0	32708	32479	
5263	0	32842	32435	
5264	0	32836	32562	
5265	0	32868	32532	
5266	0	32964	32350	
5267	0	32778	32289	
5268	0	32758	32327	
5269	0	32942	32735	
5270	0	32758	32818	
5271	0	32789	32694	
5272	0	32908	32399	
5273	0	32880	32476	
5274	0	32702	32519	
5275	0	32852	32814	
5276	0	32748	32724	
5277	0	32766	32615	
5278	0	32852	32183	
5279	0	32924	31823	
5280	0	32836	31799	
5281	0	32775	32099	
5282	0	32804	32646	
5283	0	32768	32414	
5284	0	32914	32111	
5285	0	32804	32222	
5286	0	32740	32391	
5287	0	32676	32636	
5288	0	32660	32724	
5289	0	32836	32199	
5290	0	32880	31911	
5291	0	32838	32465	
5292	0	32854	32798	
5293	0	32692	32634	
5294	0	32840	32455	
5295	0	32868	32217	
5296	0	32716	32258	
5297	0	32754	32487	
5298	0	32862	32647	
5299	0	32912	32775	
5300	0	32718	32591	
5301	0	32762	32311	
5302	0	32796	32287	
5303	0	32872	32479	
5304	0	32820	32550	
5305	0	32932	32405	
5306	0	32847	32213	
5307	0	32718	32190	
5308	0	32818	32161	
5309	0	32844	32314	
5310	0	32768	32371	
5311	0	32732	32391	
5312	0	32872	32571	
5313	0	32812	32756	
5314	0	32772	32490	
5315	0	32852	32172	
5316	0	32764	32436	
5317	0	32808	32765	
5318	0	33016	32839	
5319	0	32920	32660	
5320	0	32876	32383	
5321	0	32826	32252	
5322	0	32732	32234	
5323	0	32856	32309	
5324	0	32830	32302	
5325	0	32792	32583	
5326	0	32864	32615	
5327	0	32796	32572	
5328	0	32772	32599	
5329	0	32782	32415	
5330	0	32724	32343	
5331	0	32908	32450	
5332	0	32842	32496	
5333	0	32868	32335	
5334	0	32762	32151	
5335	0	32770	32090	
5336	0	32801	32178	
5337	0	32836	32465	
5338	0	32932	32487	
5339	0	32704	32431	
5340	0	32808	32487	
5341	0	32820	32406	
5342	0	32710	32332	
5343	0	32886	32254	
5344	0	32816	32200	
5345	0	32832	32407	
5346	0	32684	32416	
5347	0	32726	32436	
5348	0	32804	32163	
5349	0	32756	31941	
5350	0	32938	32169	
5351	0	32782	32307	
5352	0	32592	32303	
5353	0	32812	32356	
5354	0	32861	32634	
5355	0	32794	32581	
5356	0	32924	32119	
5357	0	32716	32187	
5358	0	32666	32085	
5359	0	32840	31900	
5360	0	32756	32599	
5361	0	32768	32763	
5362	0	32886	32598	
5363	0	32798	32724	
5364	0	32864	32844	
5365	0	32708	32377	
5366	0	32762	32229	
5367	0	32798	32711	
5368	0	32934	32621	
5369	0	32814	32327	
5370	0	32800	32175	
5371	0	32712	32420	
5372	0	32637	32679	
5373	0	32708	32935	
5374	0	32790	32615	
5375	0	32728	32071	
5376	0	32764	31777	
5377	0	32828	31991	
5378	0	32752	32239	
5379	0	32908	32382	
5380	0	32888	32574	
5381	0	32604	32605	
5382	0	32704	32494	
5383	0	32788	32391	
5384	0	32836	32413	
5385	0	32806	32463	
5386	0	32834	32503	
5387	0	32956	32742	
5388	0	32818	32743	
5389	0	32710	32758	
5390	0	32792	32670	
5391	0	32768	32455	
5392	0	32844	32455	
5393	0	32698	32385	
5394	0	32594	32143	
5395	0	32620	32471	
5396	0	32574	32582	
5397	0	32618	32636	
5398	0	32626	32567	
5399	0	32728	32647	
5400	0	32604	32586	
5401	0	32652	32559	
5402	0	32775	32416	
5403	0	32849	32260	
5404	0	32872	32175	
5405	0	32919	32215	
5406	0	32959	32231	
5407	0	32804	32365	
5408	0	32716	32350	
5409	0	32886	32287	
5410	0	32736	32260	
5411	0	32780	32475	
5412	0	32764	32487	
5413	0	32892	32598	
5414	0	32888	32797	
5415	0	32764	32775	
5416	0	32804	32665	
5417	0	32628	32685	
5418	0	32684	32644	
5419	0	32774	32775	
5420	0	32970	32819	
5421	0	32956	32751	
5422	0	32906	32471	
5423	0	32724	32143	
5424	0	32720	32167	
5425	0	32610	32007	
5426	0	32686	32069	
5427	0	32755	32295	
5428	0	32828	32317	
5429	0	32927	32247	
5430	0	33190	32340	
5431	0	33186	32214	
5432	0	33270	32487	
5433	0	33276	32519	
5434	0	32996	32615	
5435	0	32928	32754	
5436	0	32908	32774	
5437	0	32772	32618	
5438	0	32836	32455	
5439	0	32716	32483	
5440	0	32868	32634	
5441	0	32846	32692	
5442	0	32841	32854	
5443	0	32822	32727	
5444	0	32775	32695	
5445	0	32812	32626	
5446	0	32753	32615	
5447	0	32848	32494	
5448	0	32824	32380	
5449	0	32730	32540	
5450	0	32804	32583	
5451	0	32872	32391	
5452	0	32864	32466	
5453	0	32776	32306	
5454	0	32847	32407	
5455	0	32932	32495	
5456	0	32994	32660	
5457	0	32836	32796	
5458	0	32836	32798	
5459	0	32738	32664	
5460	0	32826	32678	
5461	0	32826	32852	
5462	0	32932	32740	
5463	0	32838	32711	
5464	0	32788	32609	
5465	0	32766	32516	
5466	0	32644	32287	
5467	0	32628	32153	
5468	0	32670	32084	
5469	0	32824	31874	
5470	0	32756	31966	
5471	0	32740	32119	
5472	0	32823	32066	
5473	0	32812	31967	
5474	0	32728	32007	
5475	0	32788	32323	
5476	0	32775	32492	
5477	0	32820	32762	
5478	0	32758	32807	
5479	0	32808	32822	
5480	0	32672	32743	
5481	0	32804	32670	
5482	0	32800	32421	
5483	0	32692	32228	
5484	0	32824	32094	
5485	0	32688	32302	
5486	0	32720	32236	
5487	0	32730	32127	
5488	0	32696	32148	
5489	0	32744	32076	
5490	0	32738	32102	
5491	0	32729	32142	
5492	0	32808	32135	
5493	0	32788	32087	
5494	0	32780	32170	
5495	0	32834	32178	
5496	0	32756	32222	
5497	0	32784	32471	
5498	0	32808	32577	
5499	0	32798	32711	
5500	0	32764	32762	
5501	0	32828	32698	
5502	0	32816	32532	
5503	0	32785	32622	
5504	0	32656	32502	
5505	0	32774	32359	
5506	0	32866	32308	
5507	0	32852	32372	
5508	0	32784	32343	
5509	0	32672	32675	
5510	0	32832	32775	
5511	0	32756	32668	
5512	0	32818	32775	
5513	0	32878	32826	
5514	0	32764	32751	
5515	0	32908	32706	
5516	0	32804	32426	
5517	0	32696	31980	
5518	0	32854	31963	
5519	0	32799	32127	
5520	0	32826	32335	
5521	0	32756	32254	
5522	0	32816	32391	
5523	0	32902	32576	
5524	0	32876	32583	
5525	0	32674	32662	
5526	0	32720	32614	
5527	0	32492	32444	
5528	0	32623	32164	
5529	0	32453	32167	
5530	0	32228	32381	
5531	0	32228	32483	
5532	0	32143	32167	
5533	0	32000	32532	
5534	0	31960	32710	
5535	0	31852	32693	
5536	0	31966	32311	
5537	0	31972	32222	
5538	0	32124	31950	
5539	0	32032	31857	
5540	0	32176	31959	
5541	0	32546	32279	
5542	0	32916	32380	
5543	0	33344	32078	
5544	0	33640	32254	
5545	0	33972	32423	
5546	0	34050	32474	
5547	0	33996	32727	
5548	0	33857	32774	
5549	0	33764	32967	
5550	0	33806	32896	
5551	0	33784	32711	
5552	0	34020	32550	
5553	0	34308	32436	
5554	0	34768	32308	
5555	0	34701	32558	
5556	0	34460	32226	
5557	0	34548	32582	
5558	0	34912	32448	
5559	0	35332	32215	
5560	0	35410	32647	
5561	0	35232	32302	
5562	0	34962	32748	
5563	0	34422	32255	
5564	0	33184	32428	
5565	0	32597	32383	
5566	0	32092	32263	
5567	0	31505	32366	
5568	0	31085	32380	
5569	0	31122	32367	
5570	0	31300	32319	
5571	0	31460	32201	
5572	0	31392	32471	
5573	0	31236	32534	
5574	0	31248	32535	
5575	0	31204	32446	
5576	0	31130	32321	
5577	0	31044	32407	
5578	0	31164	32105	
5579	0	31234	32476	
5580	0	31200	32442	
5581	0	31080	32232	
5582	0	31176	32603	
5583	0	31048	32331	
5584	0	31153	32507	
5585	0	31384	32415	
5586	0	31436	32234	
5587	0	31600	32647	
5588	0	31868	32260	
5589	0	32112	32198	
5590	0	32372	32175	
5591	0	32642	31974	
5592	0	32988	32138	
5593	0	33138	32344	
5594	0	33254	32548	
5595	0	33380	32756	
5596	0	33488	32446	
5597	0	33556	32206	
5598	0	33642	32204	
5599	0	33664	32450	
5600	0	33557	32668	
5601	0	33542	32543	
5602	0	33478	32263	
5603	0	33438	32547	
5604	0	33308	32255	
5605	0	33239	32183	
5606	0	33312	32629	
5607	0	33204	32380	
5608	0	33164	32183	
5609	0	33176	32511	
5610	0	32956	32487	
5611	0	33012	32391	
5612	0	32908	32622	
5613	0	32916	32446	
5614	0	32940	32362	
5615	0	32888	32327	
5616	0	32820	32204	
5617	0	32878	32159	
5618	0	32852	32052	
5619	0	32904	32063	
5620	0	32904	32180	
5621	0	32992	32359	
5622	0	32908	32689	
5623	0	32822	32775	
5624	0	32844	32658	
5625	0	32761	32559	
5626	0	32852	32415	
5627	0	32940	32230	
5628	0	32812	32111	
5629	0	32864	32203	
5630	0	32756	32098	
5631	0	32692	32115	
5632	0	32739	32084	
5633	0	32698	32134	
5634	0	32764	32263	
5635	0	32822	32358	
5636	0	32746	32508	
5637	0	32748	32074	
5638	0	32853	32263	
5639	0	32820	32446	
5640	0	32842	32295	
5641	0	32801	32300	
5642	0	32906	32551	
5643	0	32782	33051	
5644	0	32769	32823	
5645	0	32862	32535	
5646	0	32864	32449	
5647	0	32818	32550	
5648	0	32748	32597	
5649	0	32720	32631	
5650	0	32784	32674	
5651	0	32756	32247	
5652	0	32704	32066	
5653	0	32836	32167	
5654	0	32796	32534	
5655	0	32868	32173	
5656	0	32800	32319	
5657	0	32802	32547	
5658	0	32772	32359	
5659	0	32774	32219	
5660	0	32796	32591	
5661	0	32868	32391	
5662	0	32758	32551	
5663	0	32874	32482	
5664	0	32820	32236	
5665	0	32888	32607	
5666	0	32808	32775	
5667	0	32798	32736	
5668	0	32830	32619	
5669	0	32814	32511	
5670	0	32800	32238	
5671	0	32812	32263	
5672	0	32788	32503	
5673	0	32814	32741	
5674	0	32802	32331	
5675	0	32860	32263	
5676	0	32892	32519	
5677	0	32804	32452	
5678	0	32735	32077	
5679	0	32896	32031	
5680	0	32752	32452	
5681	0	32686	32775	
5682	0	32727	32622	
5683	0	32720	32294	
5684	0	32776	32242	
5685	0	32862	32437	
5686	0	32724	32481	
5687	0	32870	32279	
5688	0	32740	32516	
5689	0	32864	32519	
5690	0	32964	32279	
5691	0	32824	32407	
5692	0	32776	32756	
5693	0	32716	32436	
5694	0	32744	32099	
5695	0	32796	32207	
5696	0	32822	32412	
5697	0	32788	32735	
5698	0	32774	32695	
5699	0	32820	32578	
5700	0	32794	32539	
5701	0	32724	31932	
5702	0	32810	31967	
5703	0	32704	31644	
5704	0	32820	32119	
5705	0	32806	32860	
5706	0	32824	33198	
5707	0	32828	32799	
5708	0	32788	32519	
5709	0	32790	32743	
5710	0	32724	32570	
5711	0	32892	32314	
5712	0	32680	32495	
5713	0	32676	32339	
5714	0	32806	32124	
5715	0	32799	32159	
5716	0	32760	32564	
5717	0	32692	32835	
5718	0	32820	32445	
5719	0	32840	32191	
5720	0	32836	32583	
5721	0	32879	32943	
5722	0	32886	32433	
5723	0	32800	32327	
5724	0	32776	32591	
5725	0	32838	32342	
5726	0	32762	31823	
